9856329626
9856334264
9856338659
9856344274
9856349767
9856354467
9856359411
9856364416
9856369726
9856374120
9856378698
9856383764
9856389257
9856394689
9856399267
9856404455
9856409643
9856414220
9856418371
9856423986
9856429113
9856434484
9856438634
9856443700
9856448461
9856452916
9856459142
9856464208
9856469335
9856475011
9856480931
9856488195
9856493749
9856498693
9856507543
9856514195
9856520848
9856527074
9856532506
9856540257
9856547948
9856553319
9856561986
9856568150
9856576390
9856582677
9856588902
9856595982
9856602940
9856609288
9856617833
9856623143
9856632786
9856638341
9856644932
9856652562
9856658360
9856668126
9856675450
9856682042
9856689854
9856697056
9856704564
9856712681
9856719456
9856727879
9856735325
9856741185
9856747471
9856757115
9856766087
9856773350
9856781224
9856786961
9856796421
9856801548
9856809605
9856817417
9856825108
9856832005
9856837742
9856847263
9856852146
9856860081
9856867405
9856874790
9856883335
9856889011
9856898289
9856906528
9856912266
9856920567
9856926365
9856936314
9856942844
9856949497
9856957798
9856963352
9856972751
9856979526
9856985996
9856993931
9857001682
9857009678
9857016208
9857026706
9857034031
9857041111
9857047153
9857054538
9857061557
9857067478
9857076572
9857083896
9857090610
9857099338
9857106479
9857113132
9857120151
9857129001
9857137607
9857144626
9857153171
9857159580
9857168369
9857176791
9857183871
9857192233
9857197971
9857206149
9857213596
9857220981
9857227206
9857236056
9857240634
9857249484
9857256930
9857264255
9857270358
9857277194
9857286777
9857292453
9857301425
9857308932
9857316012
9857323764
9857330294
9857339816
9857345004
9857355014
9857359774
9857369174
9857375704
9857382662
9857393161
9857399386
9857407626
9857414950
9857421969
9857430880
9857436556
9857445284
9857452242
9857460665
9857469332
9857475192
9857483859
9857492159
9857499606
9857506808
9857514742
9857522005
9857527804
9857537203
9857544894
9857554415
9857561556
9857569979
9857576632
9857584749
9857592074
9857598177
9857607943
9857616671
9857624178
9857631563
9857639254
9857646395
9857653719
9857663423
9857669649
9857677950
9857684358
9857694063
9857699190
9857709566
9857718050
9857726412
9857733736
9857739656
9857747713
9857753877
9857763033
9857768404
9857779207
9857787080
9857794832
9857802034
9857808199
9857819795
9857825532
9857837434
9857845796
9857853364
9857861299
9857869234
9857877229
9857883882
9857892793
9857900605
9857907563
9857915254
9857923005
9857930574
9857936982
9857946626
9857954744
9857962007
9857970124
9857977937
9857984712
9857994538
9858001924
9858009065
9858016694
9858023835
9858031037
9858039704
9858046235
9858054475
9858062104
9858069917
9858077851
9858084931
9858092805
9858098969
9858106721
9858112824
9858122102
9858129975
9858137238
9858144257
9858152070
9858161164
9858167939
9858176423
9858181000
9858190400
9858197846
9858205658
9858215790
9858222016
9858231720
9858237763
9858244477
9858250092
9858257782
9858267060
9858274201
9858281952
9858288910
9858295502
9858301972
9858309845
9858317475
9858325470
9858332794
9858338471
9858346954
9858353851
9858360993
9858368927
9858376556
9858384125
9858391083
9858398102
9858405304
9858412750
9858421722
9858428192
9858436859
9858444610
9858452362
9858458221
9858465301
9858474334
9858480072
9858489288
9858495392
9858502594
9858512848
9858518768
9858528717
9858536956
9858544159
9858550201
9858556549
9858565033
9858572296
9858581695
9858588836
9858595733
9858602569
9858609832
9858617767
9858626617
9858633331
9858641815
9858648650
9858657073
9858664886
9858672271
9858682586
9858689056
9858695525
9858703399
9858711272
9858717010
9858725616
9858731719
9858738067
9858746306
9858752105
9858758208
9858766570
9858772429
9858780120
9858786406
9858791900
9858800933
9858806121
9858813933
9858820098
9858825957
9858833770
9858840422
9858847625
9858855437
9858861785
9858869719
9858877471
9858883940
9858892119
9858897673
9858904631
9858911223
9858918608
9858925383
9858932158
9858939604
9858945830
9858954863
9858963164
9858970366
9858978117
9858984099
9858990813
9858998991
9859006987
9859013701
9859021757
9859029875
9859038481
9859045500
9859053374
9859064238
9859070585
9859079924
9859087492
9859095427
9859101103
9859110258
9859120146
9859130095
9859139311
9859148954
9859155851
9859164335
9859172514
9859180754
9859187834
9859192045
9859200773
9859207853
9859215055
9859219328
9859227628
9859233793
9859246183
9859252226
9859259916
9859267851
9859274259
9859282560
9859291044
9859296171
9859307096
9859315336
9859321867
9859328824
9859337736
9859344938
9859351285
9859357023
9859365201
9859373563
9859379423
9859386869
9859393277
9859400907
9859407987
9859415799
9859424344
9859430082
9859438749
9859444730
9859450101
9859459012
9859467313
9859473294
9859482022
9859489835
9859494351
9859502469
9859508878
9859517667
9859524198
9859532315
9859538663
9859547818
9859554105
9859562344
9859568570
9859575833
9859582608
9859590054
9859599515
9859608609
9859615750
9859621854
9859630643
9859637112
9859645901
9859653409
9859659878
9859670498
9859677212
9859683865
9859692654
9859700772
9859707608
9859714444
9859725064
9859734341
9859742398
9859750027
9859754910
9859765469
9859770169
9859779751
9859787258
9859796292
9859804653
9859810696
9859817532
9859825527
9859832058
9859840786
9859846218
9859857510
9859862454
9859871853
9859880764
9859889614
9859897488
9859906948
9859914272
9859925625
9859930508
9859940761
9859948879
9859956020
9859962612
9859970485
9859976772
9859985256
9859991543
9859998195
9860003811
9860010402
9860017727
9860024013
9860029262
9860036464
9860041652
9860048793
9860053981
9860061611
9860067470
9860073635
9860079555
9860085964
9860091945
9860098293
9860105007
9860111049
9860114650
9860121913
9860128261
9860134425
9860141261
9860147426
9860151759
9860158656
9860164943
9860171046
9860177333
9860183620
9860190700
9860196925
9860201930
9860208095
9860215114
9860219386
9860226283
9860232326
9860237392
9860242152
9860249232
9860253932
9860260707
9860264247
9860272120
9860278651
9860284205
9860289882
9860295619
9860301783
9860308070
9860313685
9860319728
9860325587
9860330348
9860336207
9860342860
9860348170
9860356288
9860362330
9860367030
9860372889
9860377955
9860382655
9860389125
9860395106
9860400660
9860407069
9860412989
9860418360
9860423121
9860430140
9860435084
9860442469
9860448390
9860454066
9860461207
9860465357
9860471522
9860479090
9860489771
9860497401
9860502955
9860510035
9860516321
9860523340
9860530604
9860536463
9860542811
9860549158
9860554163
9860560633
9860566126
9860573023
9860581873
9860587549
9860593897
9860598414
9860606104
9860612818
9860619410
9860625940
9860632471
9860637903
9860644434
9860651270
9860657740
9860664026
9860670496
9860678003
9860684961
9860691309
9860696070
9860702966
9860709802
9860715418
9860722559
9860729883
9860735254
9860742334
9860747705
9860755212
9860761377
9860767175
9860772668
9860781335
9860785547
9860793726
9860798975
9860806055
9860811365
9860819116
9860825708
9860831994
9860835657
9860844079
9860850549
9860856775
9860863428
9860869836
9860876062
9860882470
9860889367
9860893945
9860900781
9860907495
9860913354
9860920373
9860928430
9860933007
9860940210
9860947106
9860953698
9860960412
9860967492
9860973901
9860979455
9860986962
9860991967
9860998803
9861004418
9861010705
9861014367
9861024377
9861030297
9861036218
9861042077
9861048058
9861052941
9861058801
9861066308
9861073144
9861079369
9861086816
9861094689
9861101403
9861112084
9861118310
9861127038
9861134850
9861140954
9861148278
9861153710
9861161645
9861165612
9861174218
9861180993
9861187340
9861191063
9861200768
9861207238
9861214562
9861220787
9861227318
9861234398
9861240319
9861247704
9861253685
9861261803
9861267784
9861276268
9861282250
9861290673
9861297142
9861305443
9861309837
9861319542
9861325646
9861334007
9861339867
9861348839
9861353111
9861361900
9861367760
9861374901
9861380882
9861388390
9861394493
9861402122
9861408592
9861416649
9861423118
9861430382
9861438804
9861446556
9861452232
9861460472
9861466392
9861473594
9861481346
9861488243
9861495811
9861502708
9861510276
9861514915
9861525352
9861529808
9861539329
9861546653
9861552696
9861559288
9861568077
9861574363
9861582115
9861588523
9861597434
9861604026
9861611717
9861617698
9861626365
9861632102
9861639426
9861647056
9861655601
9861661094
9861668784
9861675559
9861682151
9861688865
9861694968
9861699546
9861706138
9861712241
9861718101
9861724204
9861731040
9861737205
9861743735
9861748313
9861755759
9861760337
9861766501
9861772910
9861781699
9861790000
9861796409
9861802451
9861809409
9861814841
9861823325
9861829306
9861836386
9861841635
9861848654
9861853903
9861860861
9861865927
9861872824
9861878440
9861884177
9861890280
9861895896
9861899130
9861906577
9861909873
9861917197
9861924582
9861930197
9861935690
9861941245
9861947348
9861953452
9861958273
9861964377
9861971213
9861976157
9861982382
9861987021
9861993796
9861998495
9862005331
9862011069
9862018515
9862023215
9862028830
9862034140
9862039938
9862046774
9862051230
9862058005
9862064352
9862071005
9862075949
9862081869
9862086569
9862093466
9862098166
9862104940
9862110739
9862116720
9862122457
9862128439
9862134115
9862140097
9862147299
9862151876
9862158651
9862164572
9862171285
9862175619
9862181539
9862189474
9862195455
9862200277
9862207968
9862214071
9862219930
9862225729
9862231710
9862236227
9862243734
9862249960
9862257345
9862264059
9862269979
9862276144
9862283163
9862289693
9862295980
9862302206
9862308797
9862315511
9862321859
9862327352
9862334676
9862340169
9862347921
9862355123
9862362691
9862369771
9862374959
9862383626
9862390706
9862401387
9862408345
9862413350
9862418782
9862426290
9862431783
9862440084
9862446736
9862453389
9862459737
9862466268
9862470967
9862479024
9862483968
9862493672
9862500020
9862504781
9862511861
9862518269
9862524495
9862530843
9862537251
9862543599
9862549825
9862556233
9862563191
9862567952
9862574422
9862580708
9862587971
9862594990
9862601887
9862607320
9862614461
9862619954
9862627095
9862632466
9862639729
9862645100
9862651326
9862658223
9862663777
9862670674
9862677021
9862682332
9862689656
9862695088
9862701558
9862708577
9862714253
9862721211
9862727742
9862733174
9862741413
9862746723
9862754292
9862759907
9862766499
9862771992
9862780293
9862787068
9862793842
9862799946
9862806782
9862813984
9862819233
9862826618
9862833332
9862841145
9862848591
9862854939
9862860249
9862866535
9862872150
9862881184
9862888386
9862895405
9862901935
9862908527
9862913837
9862920673
9862927143
9862933796
9862943012
9862948810
9862956501
9862964679
9862971943
9862977619
9862986652
9862992939
9863002155
9863014728
9863022419
9863029193
9863037433
9863042743
9863051166
9863059040
9863066059
9863073749
9863080890
9863086933
9863094013
9863100849
9863107807
9863114581
9863121539
9863128314
9863135211
9863142169
9863149310
9863154376
9863161395
9863168292
9863175433
9863183612
9863189471
9863197711
9863203570
9863209979
9863217547
9863224505
9863233966
9863240497
9863247943
9863254352
9863261554
9863269915
9863277362
9863283892
9863294024
9863301532
9863308245
9863314837
9863322528
9863328875
9863336810
9863344744
9863351275
9863356890
9863363116
9863368243
9863375872
9863380999
9863387591
9863392779
9863399737
9863404803
9863412127
9863417925
9863423357
9863428484
9863435931
9863439715
9863448260
9863454607
9863460650
9863467120
9863473101
9863478228
9863484331
9863492937
9863498247
9863503924
9863511126
9863516985
9863520525
9863527971
9863535906
9863542559
9863548723
9863553789
9863559893
9863564470
9863571550
9863578875
9863584917
9863590776
9863596697
9863602739
9863607317
9863613970
9863617571
9863626116
9863632585
9863639177
9863645830
9863651506
9863658464
9863664751
9863673784
9863680254
9863685198
9863691545
9863698320
9863703935
9863709856
9863717363
9863723467
9863729082
9863734514
9863740068
9863746050
9863750261
9863756975
9863763139
9863769487
9863774248
9863780534
9863787004
9863792619
9863797563
9863804948
9863808305
9863817583
9863822771
9863828752
9863835100
9863841386
9863847612
9863852495
9863860124
9863869340
9863877214
9863884660
9863892167
9863899553
9863906205
9863911699
9863918473
9863924211
9863930253
9863936051
9863943620
9863950578
9863956620
9863961747
9863968644
9863974565
9863980729
9863987443
9863993607
9864001725
9864006425
9864013444
9864020280
9864026933
9864030778
9864038773
9864046098
9864052262
9864058488
9864064713
9864070451
9864076920
9864083512
9864090165
9864097123
9864100724
9864108292
9864114335
9864121110
9864128922
9864133805
9864141556
9864148270
9864153702
9864160416
9864166092
9864171586
9864182267
9864188187
9864194352
9864201432
9864208451
9864214432
9864219742
9864228165
9864240006
9864247452
9864254410
9864260330
9864268936
9864275467
9864281876
9864287491
9864293961
9864299454
9864307510
9864313614
9864320145
9864326798
9864333878
9864340897
9864347488
9864351456
9864359817
9864363663
9864372147
9864379349
9864386246
9864393631
9864399917
9864406509
9864412918
9864418289
9864424820
9864432083
9864438858
9864445389
9864450149
9864457962
9864462661
9864469497
9864475784
9864483352
9864490066
9864496231
9864501846
9864509292
9864514785
9864522354
9864527847
9864535171
9864541458
9864547195
9864554519
9864565811
9864573562
9864584792
9864592178
9864600112
9864606826
9864613906
9864621230
9864627639
9864634414
9864641372
9864649184
9864657058
9864663528
9864669509
9864678725
9864682632
9864691726
9864698623
9864706496
9864710464
9864718947
9864722854
9864731399
9864737685
9864743178
9864749648
9864759597
9864766555
9864774245
9864782607
9864786452
9864794570
9864801528
9864808608
9864815688
9864821303
9864829848
9864835402
9864843581
9864851760
9864859755
9864866164
9864873305
9864881423
9864889601
9864897292
9864905592
9864912489
9864924086
9864928114
9864939345
9864946913
9864954115
9864960524
9864967848
9864974867
9864981886
9864989577
9864996535
9865003187
9865008436
9865015333
9865021437
9865028151
9865034926
9865040846
9865047560
9865053053
9865059889
9865065992
9865072828
9865078810
9865084059
9865091322
9865096632
9865103895
9865109205
9865115309
9865120497
9865127455
9865132460
9865140699
9865146864
9865152845
9865159132
9865165296
9865172865
9865178602
9865184828
9865191847
9865198805
9865203993
9865210401
9865215772
9865222791
9865227430
9865234632
9865237989
9865246107
9865252088
9865257703
9865264661
9865270826
9865276014
9865282178
9865288343
9865292921
9865300123
9865303724
9865311780
9865317701
9865323621
9865328931
9865333631
9865340467
9865345533
9865354444
9865362989
9865367322
9865375379
9865379346
9865386731
9865393689
9865399610
9865404493
9865410474
9865417005
9865422193
9865427686
9865434033
9865439649
9865447461
9865452283
9865458570
9865463452
9865470227
9865477735
9865485303
9865492200
9865499341
9865509107
9865515454
9865522229
9865528821
9865533459
9865541089
9865545605
9865552808
9865559155
9865564709
9865571118
9865576367
9865582837
9865588452
9865595654
9865600659
9865607861
9865613843
9865619946
9865626416
9865632702
9865639355
9865646252
9865652722
9865659253
9865666333
9865672314
9865679150
9865685498
9865692578
9865698254
9865705273
9865711560
9865717053
9865723278
9865728466
9865736828
9865743908
9865750378
9865756726
9865762951
9865769482
9865775829
9865781994
9865788586
9865795849
9865801037
9865808788
9865815563
9865821911
9865828381
9865834911
9865840954
9865848034
9865854015
9865860424
9865867382
9865873730
9865880505
9865887646
9865894176
9865898998
9865905407
9865912365
9865920604
9865926098
9865932323
9865937694
9865945202
9865951244
9865958324
9865965526
9865972118
9865977672
9865984264
9865990612
9865997142
9866003795
9866010448
9866017711
9866024425
9866031993
9866037364
9866044628
9866050121
9866056835
9866062511
9866069530
9866076427
9866082469
9866088024
9866096324
9866103160
9866110362
9866116222
9866125743
9866134471
9866141185
9866149669
9866154979
9866162547
9866169688
9866175670
9866180736
9866189281
9866193004
9866201243
9866209300
9866216563
9866223460
9866230235
9866236888
9866243419
9866250132
9866256663
9866263377
9866268382
9866275645
9866282115
9866288829
9866295359
9866302134
9866307627
9866315501
9866322642
9866330699
9866337901
9866343882
9866351206
9866358897
9866364146
9866371409
9866378672
9866386302
9866393321
9866398875
9866406077
9866410410
9866419871
9866427500
9866434702
9866437144
9866447581
9866455027
9866462107
9866466318
9866475901
9866482798
9866490916
9866498484
9866506052
9866513926
9866519724
9866527231
9866534861
9866539683
9866549387
9866557200
9866564402
9866570871
9866577890
9866584543
9866591806
9866600168
9866606333
9866614878
9866621958
9866627878
9866635202
9866643076
9866649423
9866657297
9866661814
9866671518
9866681772
9866689218
9866695078
9866702646
9866707040
9866715463
9866719370
9866728159
9866734384
9866741830
9866747751
9866754526
9866759531
9866765756
9866772775
9866779062
9866785837
9866793771
9866801706
9866807016
9866818002
9866824289
9866831308
9866838632
9866845651
9866851388
9866858041
9866864389
9866869455
9866875863
9866882821
9866889779
9866896920
9866903390
9866910409
9866914559
9866921701
9866928048
9866933541
9866939645
9866945992
9866950875
9866957345
9866962228
9866968698
9866974252
9866981088
9866984445
9866992196
9866996163
9867002511
9867008553
9867014169
9867019967
9867025765
9867031197
9867036996
9867043282
9867049081
9867054696
9867060982
9867069039
9867072335
9867080147
9867086983
9867092721
9867098641
9867104989
9867114388
9867120675
9867126900
9867132638
9867138741
9867144417
9867151436
9867157662
9867163338
9867169320
9867174996
9867180916
9867187264
9867193123
9867198983
9867204903
9867211251
9867217171
9867223030
9867229378
9867235482
9867239876
9867247933
9867253060
9867260750
9867264168
9867271370
9867276314
9867284371
9867287911
9867297676
9867303047
9867309456
9867315926
9867322456
9867329292
9867335823
9867343452
9867350288
9867356209
9867361030
9867368233
9867376655
9867383980
9867391792
9867400764
9867408333
9867415169
9867421638
9867428474
9867435066
9867441536
9867447700
9867454109
9867461555
9867466377
9867473457
9867479744
9867486641
9867491401
9867498848
9867505744
9867511665
9867516426
9867523506
9867530464
9867537178
9867544258
9867551032
9867556465
9867565864
9867572028
9867578742
9867584052
9867591255
9867596626
9867604560
9867609992
9867618232
9867624824
9867629951
9867635383
9867643195
9867648566
9867656257
9867661567
9867669623
9867676398
9867683051
9867686835
9867695380
9867699164
9867709540
9867715705
9867722297
9867728888
9867735480
9867741340
9867747870
9867757148
9867763800
9867769111
9867776191
9867783026
9867788520
9867795111
9867802375
9867809760
9867815131
9867821662
9867827338
9867832282
9867837348
9867845526
9867849310
9867858588
9867862250
9867869757
9867876227
9867882208
9867885687
9867893378
9867900702
9867907477
9867914313
9867920111
9867925543
9867931708
9867935980
9867943976
9867952399
9867957403
9867965277
9867972906
9867980597
9867984442
9867993414
9867997565
9868018011
9868024481
9868031744
9868038885
9868045843
9868053778
9868060858
9868067877
9868073614
9868082159
9868087164
9868094610
9868098577
9868107611
9868113714
9868120123
9868126959
9868133489
9868140508
9868146917
9868153143
9868159551
9868166082
9868173162
9868179144
9868184087
9868191351
9868198370
9868204046
9868211004
9868217840
9868222845
9868230474
9868235845
9868244390
9868249761
9868258123
9868263677
9868271245
9868276800
9868285039
9868291082
9868296941
9868305547
9868314397
9868322942
9868328618
9868336187
9868344426
9868349187
9868359380
9868366460
9868374334
9868380742
9868387639
9868394475
9868401006
9868407476
9868414128
9868420354
9868425420
9868432378
9868437383
9868445622
9868452519
9868458501
9868465642
9868470220
9868477178
9868483403
9868489873
9868494511
9868501225
9868507512
9868515569
9868522282
9868528325
9868533696
9868540227
9868545109
9868552006
9868557194
9868565251
9868571110
9868576970
9868580327
9868587712
9868593693
9868599309
9868610478
9868620183
9868625981
9868635502
9868643071
9868651310
9868659245
9868667973
9868674321
9868680973
9868687077
9868693364
9868699223
9868706303
9868712101
9868717778
9868723576
9868729435
9868735111
9868741520
9868746647
9868752567
9868758793
9868764897
9868770756
9868774723
9868782658
9868789127
9868794804
9868800724
9868806400
9868812138
9868817814
9868825077
9868830021
9868836430
9868841740
9868848820
9868854557
9868860294
9868866032
9868871708
9868879764
9868884586
9868891788
9868897526
9868903202
9868909183
9868914982
9868921695
9868928776
9868934147
9868940128
9868947513
9868953495
9868959537
9868966678
9868973026
9868979251
9868985660
9868992679
9868997562
9869005313
9869010013
9869019229
9869024478
9869032230
9869038455
9869044620
9869051090
9869057498
9869064456
9869069156
9869075626
9869082523
9869089969
9869095096
9869101321
9869106815
9869114932
9869121158
9869127444
9869134158
9869140506
9869147037
9869152469
9869160831
9869166202
9869173465
9869178714
9869186526
9869190127
9869198306
9869206180
9869223880
9869231143
9869236514
9869244510
9869252322
9869262820
9869266726
9869275515
9869282473
9869287539
9869294131
9869300662
9869307803
9869314334
9869320925
9869327456
9869334048
9869339053
9869345278
9869351748
9869359133
9869365542
9869371035
9869377505
9869384890
9869391482
9869397585
9869404177
9869411379
9869416262
9869422915
9869429324
9869435854
9869442873
9869448672
9869455813
9869462466
9869469485
9869476382
9869481753
9869487795
9869494753
9869501040
9869506655
9869513491
9869521120
9869526613
9869532290
9869540529
9869544313
9869552797
9869561403
9869568239
9869573305
9869581179
9869585329
9869594240
9869601808
9869608827
9869616457
9869622072
9869630922
9869635866
9869643617
9869648805
9869655702
9869663332
9869672304
9869678285
9869685548
9869692201
9869699587
9869704164
9869713686
9869718507
9869730287
9869736635
9869744203
9869749696
9869758913
9869765809
9869773256
9869779481
9869787538
9869792055
9869802247
9869808473
9869815614
9869822572
9869829774
9869837159
9869845521
9869852418
9869858522
9869865236
9869870973
9869882508
9869889222
9869902711
9869909364
9869919068
9869925660
9869934693
9869939881
9869948914
9869956117
9869964295
9869971620
9869977296
9869983704
9869992677
9869997437
9870006776
9870013490
9870022523
9870029176
9870035706
9870041505
9870050660
9870056397
9870063965
9870069214
9870078370
9870083558
9870091797
9870096741
9870105103
9870110230
9870117371
9870122010
9870130738
9870136170
9870143738
9870147461
9870155396
9870160462
9870167725
9870175354
9870181458
9870186890
9870193177
9870200135
9870206421
9870211914
9870218567
9870225647
9870231751
9870237061
9870243408
9870249573
9870255737
9870261902
9870267944
9870273865
9870280029
9870286438
9870291016
9870298401
9870303101
9870309937
9870316223
9870321899
9870327637
9870334289
9870339416
9870346191
9870350952
9870356933
9870364624
9870369995
9870375976
9870381775
9870387085
9870392273
9870398803
9870403625
9870411194
9870417480
9870423034
9870428100
9870433777
9870439636
9870445739
9870452331
9870457031
9870463501
9870469604
9870474914
9870480712
9870486877
9870493591
9870498779
9870506225
9870512023
9870519531
9870524963
9870531860
9870537475
9870549194
9870555236
9870560180
9870566345
9870572753
9870578674
9870583678
9870594665
9870601012
9870606384
9870612060
9870618468
9870625304
9870631408
9870638610
9870645080
9870651061
9870656005
9870661986
9870668151
9870674010
9870680419
9870686767
9870694091
9870698974
9870706298
9870711303
9870718444
9870725341
9870731810
9870738158
9870745177
9870752257
9870757872
9870764952
9870770262
9870777343
9870783812
9870790831
9870796202
9870803282
9870809935
9870816893
9870822325
9870827696
9870838133
9870843993
9870850646
9870856017
9870862303
9870870116
9870875365
9870882201
9870887633
9870895628
9870900999
9870908629
9870914061
9870920470
9870925841
9870934630
9870941222
9870947691
9870954161
9870960509
9870964537
9870972410
9870979307
9870985411
9870992918
9870999327
9871005491
9871011900
9871014036
9871023680
9871030211
9871036558
9871042845
9871049315
9871056639
9871061399
9871068785
9871075804
9871082762
9871087461
9871094419
9871101377
9871107237
9871114561
9871122495
9871130552
9871141844
9871147642
9871155821
9871163145
9871168943
9871175718
9871181394
9871189207
9871194395
9871201597
9871206968
9871214292
9871220396
9871227537
9871234617
9871240964
9871245420
9871253293
9871257993
9871266050
9871272397
9871278867
9871286130
9871291623
9871299680
9871305234
9871312375
9871319455
9871326719
9871332151
9871338987
9871347715
9871354917
9871361997
9871367612
9871374631
9871381833
9871389218
9871394467
9871402219
9871409177
9871416379
9871423581
9871429196
9871435544
9871443967
9871448300
9871458310
9871464780
9871472836
9871479489
9871486935
9871495297
9871502560
9871509091
9871516110
9871522092
9871530514
9871538937
9871544491
9871552182
9871558835
9871566647
9871572445
9871581174
9871589657
9871595456
9871602902
9871610959
9871615780
9871625180
9871632992
9871640744
9871648617
9871656063
9871663754
9871669430
9871677059
9871684567
9871693112
9871698971
9871707577
9871713375
9871721554
9871731075
9871738888
9871745114
9871754147
9871760372
9871769161
9871775143
9871781857
9871789852
9871795895
9871802242
9871811703
9871815975
9871825069
9871831661
9871840023
9871846187
9871853756
9871859493
9871870601
9871877193
9871882442
9871889339
9871894832
9871900753
9871907528
9871914058
9871919246
9871926754
9871932125
9871939937
9871946163
9871952571
9871959713
9871965938
9871969661
9871977413
9871981197
9871989498
9871996273
9872002071
9872008419
9872014095
9872020320
9872025875
9872032100
9872036434
9872043025
9872049251
9872055354
9872060176
9872067745
9872073299
9872079097
9872084712
9872090205
9872095027
9872102046
9872108882
9872114497
9872119258
9872124934
9872131221
9872136836
9872142573
9872148250
9872154841
9872159053
9872165950
9872172053
9872177485
9872182368
9872189387
9872195002
9872201045
9872206538
9872211970
9872217708
9872223140
9872230891
9872236750
9872242976
9872248835
9872254451
9872260066
9872265986
9872273432
9872278681
9872285517
9872290339
9872297053
9872302912
9872308711
9872316401
9872320551
9872328486
9872333979
9872341303
9872347224
9872353816
9872357844
9872366267
9872374079
9872380305
9872385065
9872391352
9872398737
9872407465
9872413813
9872422419
9872431086
9872437495
9872445551
9872449946
9872457636
9872463984
9872470453
9872477106
9872483637
9872490595
9872498041
9872505060
9872511530
9872517817
9872524164
9872530634
9872537104
9872542109
9872548517
9872554865
9872561396
9872569513
9872574396
9872582514
9872587274
9872594232
9872600702
9872607477
9872614618
9872621698
9872626398
9872633295
9872640314
9872646173
9872653131
9872659540
9872666803
9872674188
9872680353
9872687006
9872693048
9872699640
9872706110
9872712518
9872716425
9872726190
9872730768
9872738031
9872744806
9872751214
9872757440
9872763849
9872770074
9872776727
9872783380
9872790094
9872796136
9872802911
9872809381
9872814935
9872823175
9872838739
9872843988
9872851312
9872858636
9872864984
9872870294
9872879205
9872886285
9872892999
9872898553
9872905328
9872913629
9872919000
9872927667
9872933160
9872940789
9872947198
9872953912
9872959893
9872969170
9872973260
9872981683
9872989312
9872996270
9873001458
9873008477
9873015740
9873022820
9873030755
9873039483
9873047845
9873053338
9873062066
9873069817
9873080620
9873088250
9873095879
9873100640
9873109795
9873114006
9873122918
9873131035
9873136773
9873143242
9873151604
9873157585
9873165215
9873171196
9873179741
9873186577
9873192498
9873198479
9873206536
9873212700
9873220390
9873226311
9873234551
9873240532
9873249077
9873255119
9873263664
9873269524
9873276176
9873282158
9873290703
9873296745
9873304069
9873310539
9873319389
9873325798
9873333366
9873339287
9873347038
9873354973
9873363151
9873368950
9873377311
9873383232
9873391777
9873397636
9873406425
9873412468
9873419975
9873428398
9873432792
9873441276
9873447868
9873456047
9873462638
9873470878
9873480705
9873486503
9873492790
9873501640
9873507499
9873513236
9873520744
9873526847
9873532279
9873539359
9873546012
9873552360
9873557792
9873564262
9873570243
9873575675
9873583060
9873588371
9873595390
9873599113
9873607108
9873612968
9873618888
9873624930
9873631034
9873637504
9873643607
9873649589
9873656119
9873661796
9873666984
9873676017
9873681693
9873687674
9873694510
9873701163
9873705558
9873714042
9873721488
9873727652
9873735587
9873740470
9873748282
9873753165
9873760794
9873765128
9873772147
9873778983
9873783744
9873788687
9873795767
9873800650
9873807181
9873814566
9873820181
9873825919
9873831656
9873836783
9873842581
9873850821
9873856680
9873865775
9873873831
9873880484
9873885306
9873890921
9873897086
9873903921
9873910208
9873917288
9873923575
9873929251
9873934866
9873940726
9873946524
9873952383
9873959097
9873965384
9873971609
9873976614
9873983694
9873988760
9873995413
9874001150
9874008352
9874015371
9874020315
9874027273
9874031973
9874038321
9874044912
9874050711
9874057608
9874064016
9874069387
9874074392
9874083303
9874088919
9874096914
9874102346
9874110464
9874114248
9874122610
9874128896
9874135977
9874143606
9874149954
9874156545
9874162771
9874169302
9874174184
9874181631
9874187063
9874195180
9874200491
9874208181
9874211904
9874219656
9874226552
9874232839
9874239797
9874246572
9874252675
9874258474
9874265859
9874271169
9874278432
9874284902
9874292836
9874297780
9874305349
9874313710
9874320668
9874327810
9874335012
9874345693
9874352590
9874358937
9874365102
9874371511
9874377004
9874383412
9874390065
9874396413
9874403188
9874408193
9874415517
9874425038
9874431203
9874438344
9874445058
9874451894
9874457143
9874464040
9874469655
9874476735
9874482716
9874489796
9874496022
9874503712
9874509267
9874514577
9874521840
9874527333
9874535268
9874541859
9874548817
9874554921
9874561085
9874566517
9874574696
9874578480
9874587574
9874594899
9874601246
9874605153
9874613575
9874621022
9874627308
9874633473
9874639576
9874647877
9874654713
9874661183
9874666371
9874672474
9874679432
9874686268
9874692066
9874699818
9874703724
9874711048
9874716236
9874723255
9874728260
9874735890
9874742237
9874748341
9874754627
9874760670
9874764942
9874772694
9874779469
9874784534
9874792042
9874798817
9874805530
9874810841
9874819569
9874827991
9874833423
9874841968
9874847523
9874856128
9874861744
9874870472
9874876636
9874883106
9874891407
9874900623
9874907032
9874914478
9874920887
9874928699
9874935047
9874942737
9874950733
9874960193
9874972827
9874978260
9874985279
9874993579
9875001575
9875006824
9875014636
9875021655
9875029773
9875035144
9875041980
9875049182
9875056018
9875063098
9875070300
9875077319
9875082751
9875089770
9875097705
9875105456
9875112109
9875119861
9875124499
9875134082
9875138415
9875148120
9875155139
9875160876
9875167041
9875174792
9875180713
9875189135
9875194384
9875200671
9875205981
9875213794
9875219104
9875226489
9875233630
9875242602
9875246325
9875255542
9875259082
9875266711
9875272631
9875280200
9875286730
9875293017
9875298876
9875304858
9875310595
9875316638
9875322985
9875329821
9875337084
9875340930
9875348620
9875354723
9875360583
9875366686
9875372668
9875379931
9875386523
9875392931
9875397936
9875404223
9875409472
9875417040
9875420885
9875428515
9875435290
9875441576
9875446581
9875451098
9875457262
9875465014
9875470812
9875476305
9875481981
9875487902
9875493883
9875500231
9875505785
9875511522
9875516954
9875522448
9875527941
9875533373
9875539598
9875545885
9875551805
9875557299
9875564318
9875569322
9875577989
9875584337
9875590319
9875597093
9875603197
9875611986
9875617113
9875624132
9875629686
9875635668
9875641649
9875647630
9875654100
9875659959
9875664110
9875672289
9875677782
9875683763
9875691148
9875695604
9875702745
9875707384
9875714769
9875719713
9875727037
9875732103
9875739305
9875744798
9875752000
9875757310
9875764818
9875770921
9875777513
9875783738
9875789171
9875794481
9875802476
9875808641
9875814744
9875821092
9875827439
9875835435
9875841600
9875848985
9875853379
9875859971
9875866563
9875874070
9875878099
9875887925
9875894456
9875901109
9875907578
9875913987
9875920274
9875926866
9875933091
9875940049
9875946336
9875952988
9875959092
9875964280
9875971299
9875977586
9875985093
9875990281
9875996384
9876003281
9876009629
9876016343
9876023606
9876031418
9876037705
9876043442
9876049790
9876055955
9876062974
9876069199
9876075730
9876082810
9876088547
9876095261
9876100998
9876106186
9876113511
9876119187
9876127915
9876136765
9876141526
9876148362
9876154953
9876161179
9876167221
9876177597
9876181992
9876191941
9876196335
9876208847
9876216660
9876222275
9876230148
9876237290
9876243759
9876247604
9876255783
9876261948
9876268356
9876275131
9876281479
9876297897
9876307053
9876313827
9876320358
9876327011
9876333542
9876338913
9876345566
9876352157
9876358627
9876365341
9876371689
9876378769
9876385727
9876392868
9876398361
9876407638
9876413925
9876419052
9876431198
9876438278
9876445602
9876450912
9876459274
9876466903
9876472946
9876480697
9876488082
9876495834
9876501266
9876510055
9876516891
9876524581
9876531234
9876539230
9876545333
9876553939
9876561935
9876567245
9876574630
9876581710
9876589034
9876594344
9876600692
9876611129
9876615584
9876624129
9876631270
9876636886
9876642928
9876650741
9876657027
9876666671
9876674422
9876681441
9876685714
9876694136
9876700240
9876707198
9876713240
9876721236
9876727462
9876735457
9876741378
9876748275
9876756087
9876762801
9876768294
9876777999
9876784285
9876790328
9876798140
9876803633
9876811019
9876818648
9876824141
9876831770
9876838973
9876846175
9876851119
9876860762
9876866621
9876875594
9876880415
9876890120
9876895796
9876902754
9876908247
9876914351
9876920576
9876926253
9876929854
9876937544
9876944380
9876950178
9876955488
9876961165
9876966963
9876971480
9876979658
9876986372
9876993086
9876998274
9877005964
9877013105
9877019392
9877025679
9877031721
9877039350
9877045820
9877052473
9877057722
9877066023
9877072798
9877078230
9877084272
9877090009
9877095564
9877101179
9877106245
9877110517
9877119001
9877122541
9877128645
9877132917
9877140546
9877146101
9877151960
9877158491
9877167036
9877176984
9877181989
9877188154
9877194440
9877200361
9877207868
9877213727
9877219770
9877226423
9877233137
9877236921
9877244245
9877250165
9877255720
9877261762
9877267865
9877275129
9877279889
9877286664
9877291852
9877300763
9877306073
9877312970
9877319928
9877326337
9877333173
9877338178
9877344770
9877349713
9877357709
9877364240
9877370221
9877376874
9877381269
9877387921
9877394452
9877401227
9877406598
9877413495
9877419049
9877425458
9877432660
9877441754
9877448529
9877457257
9877465680
9877472333
9877480511
9877485577
9877492535
9877499371
9877507123
9877513592
9877520245
9877526959
9877533490
9877540753
9877547223
9877552350
9877558880
9877565167
9877571698
9877578473
9877585064
9877589825
9877597760
9877604901
9877611432
9877616619
9877623211
9877629986
9877636334
9877643231
9877647991
9877654766
9877661297
9877668255
9877674664
9877680767
9877687298
9877693829
9877701031
9877706890
9877713909
9877719891
9877724712
9877732830
9877737652
9877745953
9877750835
9877759075
9877764507
9877770916
9877777874
9877783550
9877790813
9877797039
9877803997
9877810711
9877816143
9877822002
9877830669
9877838787
9877845440
9877851909
9877859966
9877864544
9877873211
9877878154
9877886760
9877893718
9877899273
9877906047
9877913128
9877920085
9877927105
9877932354
9877939250
9877947795
9877953044
9877959880
9877967205
9877974712
9877983318
9877989299
9877998332
9878003826
9878011455
9878017680
9878023723
9878030071
9878037578
9878044475
9878052165
9878060405
9878069133
9878074260
9878082988
9878093608
9878098064
9878106914
9878112590
9878119121
9878127421
9878135234
9878142558
9878149089
9878153727
9878162150
9878168254
9878176432
9878183085
9878188945
9878196513
9878200480
9878209086
9878216899
9878224345
9878231608
9878240397
9878245402
9878253092
9878259318
9878269755
9878277751
9878284220
9878295024
9878300395
9878308817
9878316630
9878323039
9878331583
9878336771
9878344889
9878350993
9878359232
9878367106
9878375407
9878382670
9878388834
9878396464
9878405375
9878410502
9878421610
9878428568
9878436564
9878443522
9878449320
9878456217
9878462626
9878470438
9878477579
9878484293
9878491739
9878496805
9878503763
9878508097
9878516947
9878523478
9878528849
9878535807
9878542154
9878547464
9878553873
9878559976
9878567056
9878572122
9878580911
9878587442
9878591776
9878598673
9878603494
9878610391
9878617471
9878623758
9878629678
9878634927
9878645120
9878654153
9878659463
9878666544
9878673379
9878678262
9878684732
9878691019
9878697061
9878703104
9878709024
9878714822
9878723550
9878727701
9878734659
9878741556
9878747110
9878753702
9878756631
9878763711
9878770913
9878774881
9878782388
9878787942
9878792947
9878799966
9878806070
9878810891
9878818277
9878822671
9878828347
9878835977
9878840127
9878846475
9878852944
9878857644
9878862832
9878867593
9878876687
9878883645
9878889016
9878894875
9878901101
9878906533
9878915078
9878922524
9878928323
9878933328
9878940041
9878945657
9878953225
9878960183
9878965615
9878973611
9878978921
9878984841
9878993508
9879001382
9879006570
9879011941
9879018471
9879025857
9879029763
9879038125
9879043679
9879051186
9879057168
9879061562
9879069985
9879076577
9879082680
9879090615
9879097268
9879103066
9879110024
9879116677
9879123268
9879131569
9879138039
9879145729
9879153847
9879161293
9879167275
9879177162
9879182961
9879189980
9879197426
9879202492
9879210610
9879217751
9879223854
9879229042
9879233620
9879242531
9879249672
9879255043
9879262733
9879269081
9879275185
9879281959
9879288673
9879296120
9879301430
9879309059
9879316566
9879321022
9879328590
9879334755
9879342445
9879348304
9879355324
9879362526
9879366127
9879380348
9879389503
9879395240
9879401954
9879408546
9879415809
9879422157
9879428504
9879434730
9879441688
9879449134
9879455787
9879460426
9879468666
9879475257
9879481361
9879489662
9879494788
9879502174
9879508338
9879515540
9879524940
9879530677
9879538978
9879546241
9879551917
9879558814
9879564674
9879572547
9879579322
9879585914
9879593604
9879599708
9879606177
9879614295
9879623816
9879630103
9879637488
9879644446
9879651954
9879657569
9879666541
9879674231
9879680762
9879688453
9879692725
9879703406
9879712073
9879720740
9879730506
9879738684
9879747962
9879752295
9879762610
9879771033
9879777991
9879787756
9879793921
9879800452
9879807166
9879813941
9879823096
9879829138
9879837622
9879846594
9879854224
9879860571
9879866492
9879875525
9879884558
9879891821
9879898230
9879903784
9879912939
9879921301
9879928076
9879936438
9879944067
9879951269
9879955481
9879964758
9879971350
9879978857
9879987524
9879992468
9880002539
9880010107
9880016821
9880023474
9880032324
9880039099
9880044592
9880050878
9880056494
9880062963
9880068151
9880075842
9880081335
9880087011
9880094518
9880100378
9880106054
9880112768
9880118444
9880125402
9880128332
9880136022
9880143285
9880149511
9880156103
9880161962
9880168737
9880173986
9880179357
9880187353
9880193822
9880198949
9880204198
9880211156
9880216405
9880223546
9880230260
9880236669
9880243261
9880248327
9880255040
9880261327
9880268163
9880273534
9880278722
9880285375
9880293737
9880298803
9880305761
9880312352
9880319677
9880324620
9880330297
9880336217
9880342382
9880349217
9880354528
9880360692
9880366063
9880372533
9880377721
9880385961
9880392491
9880398045
9880404088
9880411290
9880416478
9880424962
9880430638
9880436375
9880442662
9880448033
9880453282
9880461095
9880466161
9880472325
9880480687
9880485142
9880493199
9880497105
9880507847
9880514989
9880520848
9880525975
9880533116
9880537388
9880546361
9880553929
9880558934
9880565892
9880570530
9880579197
9880587010
9880591954
9880600315
9880606114
9880613804
9880620518
9880624424
9880633518
9880639195
9880645359
9880652806
9880658726
9880665562
9880671421
9880678501
9880685337
9880689304
9880698155
9880704380
9880707737
9880718052
9880724827
9880729832
9880737583
9880743626
9880748020
9880756748
9880762730
9880769749
9880775669
9880781406
9880789646
9880796970
9880803501
9880812839
9880819797
9880828342
9880838901
9880844578
9880852268
9880858616
9880864963
9880871738
9880878574
9880883396
9880892978
9880900058
9880905857
9880911228
9880917636
9880924106
9880932041
9880937046
9880944736
9880950412
9880955722
9880963107
9880968173
9880978244
9880983737
9880989414
9880996188
9881002414
9881009311
9881019809
9881025729
9881033664
9881040744
9881047641
9881056491
9881061069
9881069919
9881077487
9881086337
9881094760
9881100558
9881109469
9881116794
9881125949
9881131808
9881137362
9881146640
9881150729
9881161593
9881170443
9881177462
9881186496
9881193087
9881202182
9881208895
9881215731
9881224398
9881232150
9881241610
9881246188
9881258517
9881263949
9881271212
9881279635
9881287447
9881295504
9881302340
9881310336
9881315157
9881325900
9881333895
9881339938
9881346774
9881354708
9881361117
9881368746
9881375338
9881382967
9881388644
9881396639
9881404330
9881412935
9881422213
9881430208
9881439242
9881448336
9881458651
9881465120
9881472567
9881479464
9881485872
9881492281
9881500704
9881508577
9881513460
9881519747
9881525728
9881530733
9881538423
9881543306
9881549959
9881556490
9881562288
9881569429
9881574495
9881582124
9881590059
9881593843
9881601839
9881606477
9881613069
9881619295
9881625032
9881633333
9881637666
9881644441
9881650178
9881655305
9881662935
9881669832
9881675691
9881681428
9881687654
9881693513
9881698274
9881705476
9881712495
9881718782
9881723604
9881728914
9881734712
9881740876
9881745942
9881753328
9881758699
9881763826
9881769502
9881773591
9881780000
9881786348
9881791475
9881798616
9881803498
9881808625
9881815705
9881820405
9881827546
9881833100
9881838899
9881844697
9881851228
9881857087
9881863069
9881869233
9881874055
9881881501
9881887360
9881893708
9881899567
9881905244
9881911164
9881916718
9881921479
9881930207
9881937226
9881945344
9881954255
9881961152
9881965790
9881974457
9881979279
9881984833
9881991425
9881996186
9882004304
9882014008
9882019135
9882025544
9882030976
9882036896
9882045014
9882048188
9882057587
9882065522
9882070343
9882078766
9882086090
9882092621
9882099396
9882107636
9882113129
9882119416
9882126801
9882132416
9882140290
9882146881
9882152619
9882160675
9882166596
9882172272
9882179596
9882186554
9882194122
9882199860
9882206574
9882211639
9882216644
9882226471
9882233978
9882239471
9882246307
9882249847
9882258942
9882266754
9882273773
9882281158
9882287811
9882293732
9882300506
9882304291
9882312225
9882319671
9882325104
9882332489
9882339569
9882347198
9882352752
9882360931
9882366912
9882371795
9882376495
9882385650
9882392120
9882396942
9882404754
9882410369
9882417388
9882423614
9882429473
9882438323
9882446319
9882453216
9882461395
9882468109
9882479583
9882487029
9882496795
9882506377
9882513580
9882519866
9882527740
9882531158
9882541167
9882548370
9882554778
9882563140
9882569182
9882574798
9882582488
9882587676
9882596221
9882603057
9882607268
9882616729
9882624907
9882631804
9882638213
9882643950
9882654265
9882660064
9882667388
9882675383
9882680693
9882691436
9882698516
9882705596
9882712554
9882718169
9882726775
9882734343
9882740691
9882747649
9882755034
9882760954
9882769072
9882777129
9882785368
9882792449
9882800322
9882808196
9882814726
9882823149
9882830717
9882840788
9882849211
9882855498
9882863554
9882871550
9882875639
9882885588
9882893461
9882900297
9882908720
9882916960
9882922758
9882932402
9882939726
9882948637
9882953520
9882963591
9882970671
9882975492
9882986723
9882992948
9882998320
9883003019
9883010649
9883017301
9883021513
9883029264
9883036222
9883042204
9883048368
9883054960
9883060453
9883066801
9883073271
9883080595
9883092069
9883095915
9883104215
9883109525
9883116972
9883123930
9883128934
9883135587
9883142362
9883147672
9883155729
9883161588
9883167936
9883173124
9883178129
9883184171
9883189847
9883196561
9883201993
9883208890
9883213529
9883219877
9883224393
9883230924
9883236905
9883243741
9883249540
9883255094
9883261808
9883268522
9883273954
9883280484
9883285123
9883291349
9883296720
9883302640
9883308622
9883314664
9883320829
9883326810
9883331388
9883337552
9883344205
9883348660
9883355924
9883361173
9883366849
9883372952
9883378079
9883384732
9883391934
9883395963
9883403531
9883408780
9883414700
9883422391
9883428921
9883433865
9883440884
9883446133
9883450833
9883459561
9883466397
9883472439
9883478604
9883485135
9883490994
9883497159
9883505093
9883510647
9883517605
9883523037
9883530179
9883536648
9883544644
9883552762
9883556607
9883563992
9883571682
9883579251
9883587429
9883594204
9883603237
9883609768
9883615872
9883623135
9883628384
9883636257
9883643093
9883649258
9883655789
9883662869
9883668362
9883674893
9883681362
9883688503
9883695095
9883700832
9883707607
9883714260
9883724697
9883730679
9883737759
9883744045
9883749172
9883755886
9883763149
9883769131
9883775844
9883781826
9883787014
9883795254
9883800808
9883809170
9883816616
9883820827
9883827907
9883834987
9883842434
9883848720
9883854763
9883861293
9883868007
9883874599
9883881313
9883887050
9883893032
9883901088
9883905544
9883913478
9883920070
9883924587
9883935207
9883941432
9883946742
9883954555
9883960292
9883969020
9883977443
9883982814
9883993068
9884001613
9884010097
9884015956
9884023402
9884034206
9884040065
9884049037
9884056483
9884064723
9884072963
9884079494
9884088832
9884096950
9884103785
9884111415
9884117518
9884125880
9884134486
9884143947
9884169398
9884176600
9884186122
9884193934
9884204676
9884211634
9884218592
9884226466
9884235987
9884242945
9884246729
9884256373
9884262904
9884267481
9884277857
9884284388
9884291651
9884299708
9884306849
9884315638
9884322840
9884329859
9884336817
9884346155
9884352198
9884361170
9884368372
9884376307
9884384791
9884390284
9884400538
9884407557
9884416346
9884422876
9884430567
9884437220
9884443445
9884451685
9884459986
9884467493
9884474268
9884481409
9884486353
9884492945
9884501184
9884507410
9884512598
9884519556
9884524011
9884531092
9884537866
9884543237
9884548548
9884554529
9884562341
9884565820
9884572290
9884580347
9884585840
9884592859
9884598108
9884603113
9884610254
9884615137
9884624414
9884630457
9884635950
9884642847
9884646020
9884654382
9884660852
9884667627
9884673425
9884680627
9884686548
9884693262
9884698327
9884705224
9884711938
9884718347
9884725915
9884729394
9884741540
9884749109
9884754785
9884762963
9884769860
9884775781
9884782373
9884787866
9884797448
9884802758
9884808801
9884814172
9884820214
9884824304
9884831567
9884835961
9884843041
9884849755
9884854516
9884861413
9884867639
9884873620
9884879968
9884884850
9884892480
9884898583
9884904626
9884911462
9884916955
9884922448
9884928612
9884935204
9884941552
9884947839
9884953515
9884960900
9884966820
9884972314
9884981469
9884985619
9884994896
9885001977
9885007287
9885014550
9885021081
9885027855
9885035668
9885039635
9885047997
9885053917
9885060570
9885067955
9885075951
9885082054
9885088829
9885095360
9885103051
9885106835
9885114342
9885122643
9885128563
9885137169
9885141380
9885148461
9885155663
9885160973
9885168480
9885175072
9885181297
9885187950
9885194542
9885200462
9885207237
9885215416
9885221153
9885228172
9885234825
9885240440
9885246422
9885253563
9885259788
9885269005
9885273887
9885283958
9885292686
9885300133
9885308433
9885315330
9885321739
9885328392
9885335899
9885342064
9885346885
9885353050
9885359886
9885366294
9885372703
9885379234
9885385582
9885392051
9885398399
9885405906
9885412315
9885417625
9885424278
9885430869
9885437278
9885443443
9885450034
9885456809
9885463096
9885469871
9885474876
9885482017
9885488548
9885495139
9885501670
9885509055
9885513816
9885520896
9885527915
9885533530
9885540671
9885547629
9885553184
9885562827
9885568809
9885576377
9885582236
9885589194
9885595176
9885602073
9885608298
9885617087
9885623801
9885630271
9885636924
9885644492
9885651572
9885658713
9885666159
9885673362
9885680564
9885687766
9885693381
9885700400
9885705466
9885714133
9885721701
9885727561
9885732016
9885743369
9885748618
9885757895
9885764914
9885772849
9885782309
9885789023
9885795371
9885804099
9885812704
9885820212
9885826743
9885835898
9885842367
9885847250
9885858542
9885866659
9885874655
9885881918
9885890524
9885897543
9885905600
9885912680
9885921835
9885928976
9885937948
9885944723
9885951498
9885960470
9885968100
9885976034
9885986349
9885996359
9886004110
9886011068
9886017599
9886027426
9886032614
9886045614
9886050253
9886059957
9886066793
9886074300
9886079000
9886089071
9886093588
9886102377
9886110372
9886116048
9886122274
9886130880
9886137777
9886142293
9886147420
9886154256
9886159627
9886167562
9886171163
9886179159
9886186300
9886190877
9886196859
9886203267
9886210958
9886217061
9886224752
9886229574
9886237630
9886242696
9886250081
9886257405
9886264486
9886269368
9886275899
9886284139
9886290425
9886294210
9886301900
9886308309
9886314717
9886320821
9886327230
9886333272
9886339498
9886345784
9886351888
9886358724
9886364949
9886371297
9886377095
9886382954
9886388753
9886394368
9886400594
9886407613
9886412556
9886419209
9886424153
9886430867
9886436421
9886442464
9886448567
9886454182
9886460286
9886466084
9886471516
9886477254
9886482991
9886488850
9886495442
9886501668
9886506672
9886513020
9886519124
9886524067
9886529866
9886536335
9886543477
9886550007
9886555745
9886560200
9886567219
9886573689
9886579609
9886585835
9886591755
9886598164
9886603657
9886612751
9886618122
9886626179
9886632954
9886640339
9886645771
9886653034
9886658955
9886664875
9886669148
9886676228
9886683064
9886689045
9886695515
9886701984
9886708271
9886715290
9886720783
9886727802
9886733295
9886739643
9886746906
9886751728
9886758991
9886766132
9886772663
9886780048
9886787128
9886792621
9886799946
9886805195
9886811542
9886816791
9886824054
9886831623
9886838153
9886845111
9886849750
9886856769
9886863666
9886869648
9886874469
9886883441
9886887470
9886895587
9886902423
9886908588
9886912494
9886920917
9886928485
9886935138
9886940326
9886947162
9886953082
9886959735
9886965839
9886974262
9886980182
9886986469
9886992755
9887000323
9887004840
9887011981
9887019183
9887025531
9887031024
9887038287
9887044696
9887051044
9887057025
9887063312
9887071368
9887076251
9887083636
9887088946
9887095965
9887101153
9887108844
9887112933
9887121478
9887128619
9887134967
9887140643
9887146991
9887153094
9887159991
9887167559
9887172686
9887178851
9887184222
9887193011
9887196429
9887205767
9887215350
9887222796
9887227557
9887238604
9887245989
9887251666
9887258807
9887264422
9887272601
9887277972
9887286395
9887290179
9887298540
9887305437
9887310442
9887316241
9887324908
9887331621
9887336932
9887343828
9887351214
9887358355
9887365435
9887372393
9887379412
9887386248
9887393450
9887400774
9887407915
9887413958
9887420733
9887429216
9887437151
9887443499
9887448687
9887457170
9887463518
9887470171
9887476091
9887485308
9887492082
9887497698
9887504106
9887512651
9887519731
9887528398
9887537554
9887544878
9887552019
9887562151
9887569353
9887575700
9887584917
9887591631
9887601030
9887610185
9887616655
9887624040
9887632585
9887640886
9887647172
9887652299
9887663469
9887668596
9887679277
9887684404
9887693864
9887701127
9887709245
9887715715
9887724748
9887731096
9887740068
9887748552
9887751481
9887763505
9887768754
9887778947
9887787004
9887792985
9887802384
9887810746
9887817826
9887824479
9887830827
9887840043
9887846513
9887854875
9887860368
9887868485
9887874711
9887878739
9887886857
9887893632
9887899857
9887906205
9887912553
9887918717
9887925004
9887931412
9887938676
9887945756
9887953385
9887960648
9887966080
9887977677
9887981400
9887990006
9887996842
9888003190
9888007767
9888015213
9888019669
9888027848
9888033768
9888040055
9888046585
9888052750
9888058182
9888064347
9888071793
9888076493
9888083573
9888089737
9888095474
9888099747
9888106400
9888112808
9888118424
9888124527
9888131241
9888136917
9888143265
9888149613
9888155411
9888161331
9888167191
9888173538
9888179703
9888185074
9888191238
9888196365
9888202835
9888208389
9888213943
9888220962
9888226456
9888231827
9888237076
9888243240
9888249710
9888254654
9888261795
9888267044
9888272598
9888278579
9888284988
9888290909
9888296341
9888303482
9888308304
9888315506
9888321731
9888327713
9888333938
9888340469
9888346939
9888351699
9888359024
9888364334
9888370132
9888377761
9888384048
9888389785
9888396377
9888402297
9888407485
9888415054
9888420364
9888428481
9888435500
9888442031
9888449111
9888456069
9888461074
9888466995
9888474502
9888481521
9888487014
9888493423
9888498183
9888504958
9888523696
9888530715
9888539931
9888549270
9888556106
9888563369
9888569716
9888575026
9888582717
9888589065
9888595107
9888598647
9888610244
9888617995
9888622573
9888633742
9888642165
9888647292
9888653701
9888661269
9888667556
9888674391
9888680617
9888686232
9888692153
9888698256
9888704360
9888712355
9888719008
9888724928
9888729994
9888737380
9888742445
9888749587
9888755019
9888763014
9888767409
9888774489
9888778151
9888786635
9888792860
9888798903
9888806288
9888812575
9888819411
9888825453
9888831557
9888837599
9888842970
9888848829
9888856825
9888864577
9888870314
9888875929
9888881422
9888886610
9888894789
9888902052
9888908400
9888915358
9888922071
9888928297
9888933668
9888941053
9888949354
9888955824
9888963148
9888968458
9888977552
9888983168
9888990370
9888996595
9889005689
9889009779
9889018202
9889025648
9889032545
9889039503
9889044569
9889051832
9889059095
9889067701
9889073072
9889080824
9889088026
9889094862
9889101026
9889109510
9889113966
9889122083
9889129713
9889139905
9889146497
9889154798
9889161024
9889170301
9889177076
9889184156
9889190137
9889198621
9889204541
9889211194
9889219312
9889227185
9889233228
9889239942
9889245862
9889254468
9889260633
9889266919
9889274671
9889281385
9889286695
9889294263
9889301892
9889307874
9889315747
9889322278
9889330884
9889337659
9889343335
9889351453
9889359204
9889366711
9889372449
9889380627
9889388501
9889393994
9889401440
9889407788
9889417126
9889421948
9889431592
9889438122
9889445386
9889452283
9889461255
9889467724
9889475232
9889485180
9889494946
9889500012
9889509778
9889514416
9889523510
9889530529
9889536999
9889543408
9889547924
9889554272
9889559460
9889567944
9889574047
9889579846
9889586560
9889591442
9889597058
9889601635
9889609142
9889616528
9889622204
9889629345
9889633373
9889640087
9889643932
9889652966
9889659618
9889664074
9889672619
9889677807
9889683849
9889689404
9889695873
9889701000
9889707958
9889712292
9889720837
9889726330
9889731823
9889740002
9889744579
9889751049
9889757335
9889762462
9889772167
9889776378
9889785045
9889790050
9889796886
9889801830
9889808727
9889813854
9889819713
9889826183
9889831127
9889837291
9889840770
9889848156
9889854137
9889859508
9889866588
9889871593
9889878490
9889884593
9889890148
9889896373
9889901500
9889906261
9889912792
9889917491
9889925243
9889932140
9889938182
9889944469
9889949352
9889954784
9889961864
9889968333
9889975963
9889981029
9889987559
9889993602
9890000377
9890006114
9890015575
9890020946
9890028209
