10258928632
10258934613
10258939252
10258945355
10258951337
10258956403
10258961896
10258966962
10258972455
10258979474
10258985577
10258991192
10258996869
10259003399
10259010174
10259015912
10259021649
10259028424
10259034771
10259042767
10259049115
10259054181
10259062115
10259069928
10259077008
10259084393
10259090802
10259098065
10259104718
10259110821
10259117840
10259125653
10259132488
10259139263
10259146771
10259153607
10259160381
10259167523
10259175396
10259182476
10259188763
10259196697
10259204937
10259212750
10259220318
10259227886
10259234600
10259242596
10259251385
10259258465
10259265911
10259272930
10259280681
10259288128
10259294292
10259302105
10259311992
10259318462
10259326458
10259331951
10259340007
10259347881
10259355388
10259362529
10259370586
10259376934
10259383953
10259391094
10259398967
10259410076
10259417400
10259424785
10259432231
10259439067
10259446880
10259454692
10259463848
10259469646
10259478130
10259485515
10259494304
10259501323
10259510905
10259518047
10259525188
10259532695
10259541606
10259547954
10259556621
10259564555
10259571818
10259579875
10259587016
10259594218
10259602824
10259610759
10259618083
10259626811
10259633708
10259641398
10259648600
10259656169
10259667094
10259675151
10259685344
10259690409
10259700785
10259710246
10259718486
10259727580
10259736064
10259743937
10259751933
10259759318
10259766032
10259778056
10259786356
10259793620
10259801615
10259809733
10259816569
10259823527
10259832987
10259840739
10259848063
10259856119
10259864420
10259872965
10259879435
10259887491
10259895853
10259904215
10259912455
10259918619
10259929484
10259936625
10259945536
10259953959
10259961100
10259969034
10259977091
10259985575
10259993936
10260002603
10260010599
10260017252
10260026346
10260033243
10260041788
10260052835
10260060282
10260067545
10260075235
10260083353
10260092203
10260098489
10260107706
10260114359
10260124918
10260132303
10260139993
10260146646
10260157144
10260164102
10260171365
10260179605
10260187662
10260194925
10260202615
10260212381
10260217996
10260227823
10260234964
10260241922
10260249795
10260259866
10260268045
10260277261
10260283548
10260292764
10260300698
10260310830
10260318704
10260326089
10260335305
10260342019
10260358376
10260368325
10260380837
10260392800
10260403481
10260410989
10260418862
10260425942
10260433816
10260442116
10260451211
10260457680
10260466408
10260476113
10260483864
10260490883
10260499367
10260506203
10260514565
10260526833
10260534768
10260541665
10260547402
10260555275
10260563088
10260572487
10260582680
10260589394
10260597206
10260604958
10260615822
10260622719
10260631142
10260639626
10260646034
10260652687
10260659340
10260666664
10260673500
10260681618
10260689430
10260697609
10260707253
10260714882
10260723976
10260731300
10260738441
10260746864
10260752541
10260760963
10260768165
10260776955
10260785072
10260792702
10260799782
10260807045
10260816078
10260823951
10260834877
10260843055
10260850624
10260858986
10260866676
10260875404
10260884803
10260892982
10260901039
10260909584
10260917213
10260925819
10260934974
10260944007
10260952918
10260959388
10260967994
10260975562
10260984657
10260994972
10261003700
10261017371
10261025733
10261034827
10261049110
10261057654
10261065223
10261071998
10261078895
10261085731
10261093787
10261102942
10261110633
10261117591
10261124854
10261131812
10261137977
10261145423
10261152869
10261160437
10261166541
10261173743
10261180640
10261189246
10261195899
10261203589
10261209815
10261214820
10261222022
10261228491
10261233801
10261240271
10261246008
10261253455
10261259863
10261264868
10261271826
10261276831
10261283484
10261291296
10261297400
10261304724
10261311011
10261317419
10261324316
10261330481
10261336829
10261345373
10261351843
10261358679
10261364538
10261369482
10261376868
10261382055
10261390722
10261397070
10261403418
10261416784
10261422766
10261428259
10261436987
10261443579
10261449804
10261455725
10261461767
10261467871
10261473852
10261479284
10261486486
10261493627
10261500524
10261506872
10261515417
10261522070
10261529211
10261537512
10261543859
10261547460
10261556310
10261564062
10261571142
10261577001
10261585546
10261593359
10261600805
10261608068
10261613439
10261621679
10261630102
10261637975
10261647375
10261658422
10261666479
10261673925
10261682592
10261690709
10261698522
10261706029
10261711522
10261720128
10261727330
10261735082
10261740270
10261747350
10261756017
10261761937
10261768529
10261776220
10261783483
10261788976
10261796361
10261803929
10261810338
10261818517
10261825597
10261831517
10261840001
10261848363
10261854161
10261862340
10261869054
10261877965
10261884984
10261891026
10261898167
10261905919
10261913976
10261921727
10261929417
10261935399
10261945042
10261950719
10261959263
10261965306
10261975011
10261980870
10261988865
10261997166
10262004063
10262011876
10262017796
10262025609
10262033482
10262039341
10262045811
10262055638
10262063328
10262069371
10262075779
10262085240
10262092686
10262099644
10262106602
10262113621
10262122959
10262129307
10262137852
10262145298
10262151707
10262160496
10262166782
10262175022
10262183872
10262191990
10262200474
10262207554
10262216221
10262222324
10262230198
10262237278
10262248142
10262253513
10262262668
10262269687
10262279453
10262286655
10262293857
10262303135
10262310764
10262320774
10262327854
10262334446
10262343784
10262350071
10262358371
10262367221
10262374912
10262384677
10262394199
10262402133
10262412387
10262420566
10262426608
10262435581
10262442417
10262457980
10262464145
10262472690
10262480441
10262488254
10262494235
10262502597
10262508762
10262516513
10262523837
10262531039
10262537814
10262543613
10262549960
10262556674
10262563022
10262568637
10262574801
10262581210
10262587558
10262594272
10262599032
10262606173
10262614230
10262620456
10262625705
10262633334
10262638644
10262645724
10262651767
10262657443
10262663607
10262671725
10262675387
10262683566
10262687350
10262695590
10262701571
10262709201
10262715304
10262721530
10262728671
10262734774
10262741366
10262747531
10262753085
10262759799
10262766146
10262773531
10262780062
10262787020
10262793063
10262798312
10262804171
10262811312
10262817538
10262822481
10262828585
10262833895
10262840548
10262847140
10262852999
10262858553
10262865511
10262869845
10262876436
10262881991
10262886934
10262893648
10262899691
10262904635
10262911043
10262915438
10262923006
10262928316
10262933931
10262940157
10262946260
10262951571
10262955965
10262962557
10262967134
10262975923
10262980135
10262987703
10262993685
10262999422
10263006197
10263014376
10263021089
10263030123
10263039156
10263044466
10263053377
10263060640
10263066499
10263074251
10263080476
10263086214
10263091585
10263098482
10263104219
10263111360
10263117891
10263124116
10263131685
10263137300
10263144441
10263149812
10263157930
10263164522
10263170930
10263178621
10263185640
10263191926
10263197664
10263205537
10263211213
10263219026
10263225740
10263232576
10263239778
10263246431
10263253022
10263259736
10263267488
10263272920
10263280549
10263285920
10263293611
10263299226
10263307344
10263313508
10263321260
10263327424
10263334382
10263338349
10263346284
10263351655
10263361054
10263368745
10263375275
10263381440
10263388154
10263396210
10263401643
10263409699
10263414643
10263422395
10263429475
10263435151
10263442231
10263448884
10263454438
10263463044
10263468476
10263475495
10263481049
10263489106
10263492951
10263500702
10263506623
10263514801
10263518891
10263527619
10263534638
10263540986
10263544770
10263553803
10263558564
10263566803
10263572907
10263579315
10263586212
10263592682
10263598542
10263605011
10263611176
10263617645
10263628998
10263636627
10263642426
10263651764
10263657196
10263664215
10263671661
10263679840
10263687347
10263695526
10263701080
10263709137
10263716949
10263723480
10263728180
10263736359
10263742340
10263748810
10263756195
10263762665
10263768402
10263774933
10263781891
10263788421
10263795196
10263799774
10263806671
10263812957
10263820099
10263825775
10263833038
10263837921
10263845794
10263849212
10263857391
10263863433
10263870269
10263880096
10263885589
10263893218
10263900604
10263907134
10263912933
10263919341
10263926177
10263931243
10263939056
10263943878
10263952483
10263958343
10263965057
10263970794
10263979156
10263983001
10263991607
10264000518
10264006316
10264015227
10264022369
10264031158
10264038970
10264045989
10264055144
10264061614
10264069427
10264077422
10264085601
10264092376
10264099151
10264109038
10264115569
10264124358
10264132232
10264139190
10264146270
10264155059
10264161772
10264170378
10264178862
10264187163
10264196685
10264205107
10264210478
10264216216
10264223052
10264228728
10264235991
10264242705
10264249053
10264254973
10264266753
10264277068
10264284331
10264291472
10264299467
10264306486
10264313872
10264318510
10264325896
10264331023
10264338896
10264345061
10264352568
10264357512
10264363676
10264370329
10264374907
10264382475
10264388029
10264393217
10264399565
10264405119
10264412260
10264416288
10264424833
10264430754
10264436979
10264443571
10264450163
10264455717
10264460783
10264467436
10264472563
10264479154
10264484281
10264490995
10264497526
10264503691
10264509794
10264515226
10264521147
10264526884
10264532987
10264538786
10264543302
10264551481
10264557584
10264562223
10264568754
10264574979
10264580412
10264587125
10264592252
10264600065
10264606779
10264612760
10264619169
10264624479
10264631864
10264638273
10264643217
10264650724
10264656400
10264663114
10264670072
10264675748
10264681730
10264689054
10264694181
10264700834
10264706937
10264712919
10264719938
10264726407
10264733487
10264740140
10264746488
10264753629
10264760221
10264767057
10264775724
10264783597
10264790738
10264796536
10264805081
10264811307
10264818936
10264825345
10264833890
10264838284
10264847745
10264854703
10264861844
10264868741
10264875638
10264882230
10264887784
10264895352
10264901639
10264908841
10264915250
10264922147
10264928128
10264934170
10264941250
10264947781
10264954251
10264959195
10264966519
10264971524
10264979275
10264985684
10264991665
10264997769
10265003811
10265010342
10265018155
10265025723
10265033841
10265041043
10265048611
10265055508
10265062710
10265068936
10265076992
10265083401
10265090176
10265096829
10265103420
10265110623
10265117214
10265122524
10265128933
10265135159
10265141506
10265147732
10265154141
10265160915
10265167324
10265174160
10265181362
10265186855
10265193752
10265201321
10265207119
10265212978
10265220669
10265227138
10265232510
10265238796
10265245022
10265251369
10265259060
10265265285
10265273098
10265278835
10265287014
10265295925
10265301906
10265310329
10265315639
10265323391
10265331447
10265337795
10265346157
10265353542
10265360744
10265367519
10265371913
10265381008
10265387966
10265394557
10265400844
10265407985
10265415615
10265423732
10265432582
10265439784
10265446742
10265454128
10265461452
10265469142
10265476100
10265484218
10265493373
10265501369
10265507472
10265517787
10265526332
10265533717
10265540370
10265546107
10265553065
10265559535
10265565455
10265571925
10265578639
10265585170
10265591700
10265597926
10265604945
10265610682
10265618251
10265624232
10265631129
10265638148
10265644740
10265649012
10265658046
10265665065
10265671595
10265675624
10265684107
10265691249
10265697596
10265703272
10265709742
10265716944
10265723353
10265729518
10265736781
10265744471
10265749354
10265756434
10265763514
10265770655
10265776026
10265783472
10265789027
10265795863
10265801112
10265808497
10265813624
10265820399
10265825587
10265832545
10265839258
10265845484
10265852137
10265858057
10265863062
10265870020
10265877222
10265883814
10265891077
10265898218
10265905542
10265911158
10265917872
10265924158
10265929529
10265937586
10265944056
10265950525
10265956812
10265963037
10265969019
10265976648
10265982874
10265988489
10265995325
10266000513
10266007227
10266012476
10266019251
10266024133
10266031091
10266036463
10266043115
10266049707
10266055566
10266063074
10266070947
10266076746
10266083337
10266088953
10266095666
10266101343
10266106958
10266113489
10266119348
10266125207
10266130456
10266136133
10266141321
10266146692
10266153833
10266159814
10266166589
10266171838
10266177270
10266182519
10266188073
10266195581
10266201745
10266206445
10266213708
10266219934
10266225427
10266229150
10266236596
10266243249
10266247766
10266253503
10266258813
10266264611
10266270532
10266276940
10266282006
10266289269
10266292504
10266300561
10266304406
10266311364
10266315209
10266321984
10266329247
10266335412
10266340844
10266345666
10266353661
10266357201
10266367028
10266373986
10266378930
10266387231
10266392052
10266399438
10266405907
10266411706
10266417382
10266424462
10266429528
10266437951
10266441674
10266450158
10266454308
10266461083
10266467736
10266474083
10266480675
10266486779
10266492882
10266497582
10266504174
10266510949
10266518761
10266523705
10266530968
10266536156
10266542931
10266548058
10266555687
10266563011
10266570885
10266577843
10266582726
10266589806
10266597130
10266604759
10266611351
10266621544
10266629479
10266637108
10266643639
10266651512
10266658836
10266664574
10266672142
10266677696
10266685326
10266690819
10266697350
10266702660
10266712242
10266716270
10266725181
10266728905
10266737449
10266744285
10266750938
10266757713
10266762962
10266769676
10266776268
10266782860
10266789329
10266795921
10266802391
10266809776
10266815086
10266822898
10266827659
10266834556
10266840965
10266847190
10266853599
10266860618
10266867942
10266873924
10266880882
10266886619
10266893760
10266899497
10266906455
10266913108
10266918662
10266926719
10266932029
10266938926
10266944297
10266951438
10266956748
10266965904
10266972556
10266979209
10266985923
10266992332
10266999595
10267004905
10267013267
10267020774
10267026633
10267033652
10267040488
10267046287
10267053367
10267061545
10267068503
10267077231
10267083213
10267088157
10267094504
10267099448
10267106528
10267111533
10267118979
10267127768
10267133872
10267141745
10267148886
10267153037
10267162253
10267169211
10267175131
10267185080
10267190756
10267196921
10267205588
10267211508
10267217734
10267225607
10267232626
10267239401
10267247153
10267253928
10267264487
10267269308
10267278281
10267285056
10267294150
10267301718
10267311178
10267315878
10267324240
10267330099
10267337790
10267344137
10267350668
10267357077
10267364096
10267370138
10267376181
10267382589
10267388998
10267394980
10267400778
10267408285
10267414389
10267421347
10267428854
10267433798
10267438681
10267446188
10267453268
10267459677
10267466024
10267471823
10267477255
10267482992
10267489096
10267496054
10267502340
10267507345
10267514120
10267518881
10267525594
10267530355
10267536215
10267544149
10267550192
10267556173
10267561971
10267567831
10267572225
10267579122
10267585226
10267591207
10267597677
10267602926
10267608724
10267614767
10267620992
10267628438
10267634054
10267640829
10267645467
10267652425
10267656881
10267663656
10267669332
10267675374
10267682454
10267687337
10267694661
10267698690
10267705343
10267709798
10267716207
10267721029
10267728109
10267733297
10267739278
10267744344
10267749715
10267754781
10267761800
10267767903
10267772115
10267778157
10267784078
10267790486
10267795064
10267803243
10267808492
10267813924
10267820149
10267824849
10267831136
10267836263
10267844624
10267853291
10267860066
10267865743
10267872823
10267878804
10267885579
10267892354
10267898457
10267904439
10267910237
10267917134
10267922688
10267928242
10267933186
10267941365
10267946736
10267951436
10267957905
10267962483
10267970051
10267975728
10267981648
10267988911
10267994648
10268002034
10268006733
10268014119
10268020771
10268026142
10268034260
10268040242
10268045369
10268052571
10268057576
10268064534
10268069660
10268078205
10268084187
10268090229
10268095905
10268102070
10268109028
10268115009
10268119160
10268126423
10268133991
10268138996
10268145649
10268151691
10268157551
10268163593
10268170368
10268175190
10268183125
10268187702
10268195026
10268200153
10268207416
10268212482
10268219623
10268225239
10268232380
10268237507
10268244343
10268249470
10268256428
10268263752
10268270893
10268278583
10268283283
10268289692
10268295673
10268302082
10268308490
10268314289
10268321613
10268327655
10268332721
10268339923
10268345539
10268351947
10268357257
10268365436
10268369098
10268377216
10268383991
10268390033
10268395831
10268401935
10268407855
10268414447
10268422443
10268427814
10268435199
10268440692
10268448810
10268454852
10268461383
10268468219
10268477679
10268485187
10268491656
10268498920
10268505694
10268510699
10268518390
10268525714
10268531878
10268538714
10268545856
10268552508
10268559100
10268566180
10268571551
10268578570
10268585467
10268591632
10268599810
10268607257
10268614764
10268619830
10268628070
10268634906
10268640582
10268649249
10268654559
10268662066
10268669390
10268677264
10268684649
10268691912
10268699725
10268705889
10268716326
10268723345
10268728777
10268737994
10268744097
10268752581
10268756854
10268766314
10268774981
10268783404
10268790362
10268796648
10268805010
10268812823
10268820696
10268829851
10268836260
10268843401
10268849199
10268858294
10268866228
10268874529
10268881853
10268888628
10268897112
10268901873
10268912371
10268920366
10268926653
10268935381
10268943376
10268950090
10268957048
10268964250
10268971636
10268979753
10268988909
10268994951
10269002214
10269009538
10269018999
10269026872
10269034258
10269042925
10269048845
10269055742
10269061174
10269069963
10269075883
10269084123
10269090654
10269097307
10269105791
10269111711
10269119951
10269125566
10269135881
10269142534
10269149003
10269155717
10269161882
10269167375
10269173417
10269180375
10269186479
10269193742
10269198686
10269206010
10269211686
10269218400
10269224382
10269229509
10269237626
10269242387
10269248613
10269253862
10269260087
10269265824
10269271623
10269278764
10269284928
10269289506
10269295976
10269300981
10269305863
10269310197
10269316850
10269323502
10269329057
10269334367
10269339738
10269345902
10269350297
10269355851
10269362077
10269369035
10269374467
10269379655
10269385209
10269390580
10269396073
10269402787
10269408707
10269415543
10269420975
10269427262
10269432450
10269438187
10269444291
10269449601
10269456315
10269459427
10269466630
10269473465
10269478898
10269484818
10269491410
10269497208
10269504410
10269510025
10269517777
10269523636
10269530228
10269536698
10269542923
10269548050
10269555313
10269560929
10269568436
10269574784
10269582657
10269589310
10269596268
10269602249
10269605728
10269613114
10269619766
10269626907
10269634659
10269639664
10269645950
10269652542
10269659439
10269666824
10269675064
10269681717
10269690933
10269699112
10269705337
10269711868
10269717789
10269722793
10269729690
10269736954
10269742142
10269749893
10269753555
10269763443
10269769241
10269775650
10269783828
10269789627
10269797866
10269804397
10269811294
10269818374
10269825943
10269832778
10269839187
10269845291
10269849929
10269856887
10269863540
10269869338
10269877212
10269882156
10269889358
10269894241
10269899246
10269906753
10269911880
10269919631
10269926772
10269933181
10269939346
10269945327
10269950576
10269956557
10269962661
10269968826
10269975600
10269982864
10269989577
10269995376
10270003310
10270010146
10270019362
10270024795
10270032119
10270039931
10270046828
10270053481
10270058608
10270065932
10270073439
10270079299
10270085708
10270091689
10270096633
10270103713
10270108718
10270115554
10270123610
10270130019
10270135878
10270141921
10270148268
10270154860
10270160353
10270167616
10270174697
10270181960
10270190077
10270195571
10270202223
10270208266
10270216200
10270222060
10270230177
10270235671
10270243056
10270248549
10270254774
10270262160
10270269972
10270277785
10270287550
10270294752
10270300795
10270306532
10270315321
10270321669
10270331801
10270340223
10270346632
10270353407
10270359327
10270366835
10270373549
10270380262
10270388197
10270394423
10270400404
10270406569
10270413404
10270418043
10270426039
10270431837
10270439711
10270447035
10270453871
10270459425
10270467665
10270473280
10270481275
10270488294
10270496229
10270502516
10270510938
10270517164
10270524915
10270531019
10270537305
10270547193
10270554945
10270560987
10270568983
10270575147
10270582044
10270587781
10270597486
10270604139
10270611524
10270619398
10270626600
10270632642
10270639661
10270645154
10270653150
10270659498
10270668470
10270674573
10270682813
10270688062
10270696119
10270701368
10270708692
10270715345
10270721936
10270726758
10270733594
10270740369
10270746289
10270750745
10270757154
10270764783
10270770886
10270775586
10270781751
10270786450
10270792920
10270797742
10270805249
10270811475
10270817639
10270823865
10270829602
10270835034
10270840710
10270844800
10270852002
10270858411
10270864819
10270869824
10270875684
10270881787
10270887707
10270893811
10270901013
10270906933
10270913159
10270918164
10270923413
10270932263
10270935803
10270943371
10270951733
10270958142
10270964673
10270972424
10270977673
10270982922
10270989270
10270996777
10271001782
10271008068
10271012524
10271019299
10271025158
10271030773
10271036328
10271042187
10271047741
10271053112
10271058789
10271064648
10271070080
10271077770
10271083569
10271089062
10271094494
10271104077
10271110485
10271116345
10271121166
10271128735
10271133007
10271140087
10271147350
10271153271
10271159252
10271164318
10271170971
10271177746
10271181896
10271188854
10271194347
10271200146
10271206798
10271212841
10271219372
10271226818
10271233349
10271240001
10271247753
10271252697
10271260509
10271266185
10271274730
10271281749
10271288097
10271295238
10271300914
10271309276
10271317638
10271324047
10271330394
10271336864
10271342967
10271349620
10271358104
10271363292
10271370311
10271377208
10271383739
10271392162
10271400523
10271407298
10271414256
10271421886
10271428233
10271436412
10271442638
10271451549
10271458324
10271464854
10271471141
10271476695
10271485606
10271493602
10271500560
10271509227
10271515269
10271523631
10271529857
10271537059
10271545482
10271552318
10271558055
10271565318
10271570933
10271575938
10271583445
10271590159
10271596812
10271603465
10271609629
10271615428
10271621531
10271627452
10271636424
10271642283
10271649790
10271655589
10271662425
10271668650
10271674754
10271681529
10271689280
10271694895
10271701731
10271707530
10271713633
10271720225
10271727427
10271734141
10271738963
10271746531
10271750986
10271757578
10271763560
10271769846
10271776987
10271784678
10271789744
10271797922
10271802988
10271809153
10271814768
10271823740
10271831614
10271838999
10271842966
10271851572
10271857859
10271864389
10271870737
10271877817
10271885569
10271892649
10271897287
10271904795
10271911570
10271918344
10271925424
10271930674
10271938608
10271945444
10271952768
10271959970
10271966623
10271971689
10271979746
10271986215
10271993967
10272001840
10272008615
10272014108
10272022836
10272028268
10272036447
10272044870
10272052866
10272058969
10272065561
10272073312
10272079782
10272085336
10272093027
10272102304
10272109628
10272115182
10272123422
10272132089
10272138620
10272148019
10272158212
10272167611
10272177011
10272184640
10272191903
10272201486
10272208993
10272214669
10272221139
10272230844
10272236764
10272243905
10272251596
10272259347
10272265573
10272272042
10272280038
10272288156
10272295480
10272301888
10272309335
10272315865
10272323739
10272330026
10272338509
10272344857
10272352486
10272359017
10272366036
10272373421
10272380013
10272386788
10272391549
10272399789
10272405587
10272411202
10272415169
10272423226
10272429390
10272435982
10272441781
10272446114
10272452401
10272459542
10272465340
10272472664
10272478768
10272483712
10272490487
10272495308
10272502571
10272508126
10272513619
10272521859
10272526497
10272532601
10272538155
10272544014
10272549752
10272555550
10272561653
10272568428
10272575203
10272581856
10272588081
10272593575
10272601143
10272605476
10272612740
10272617256
10272623482
10272627937
10272633797
10272638130
10272645454
10272652779
10272658577
10272664009
10272669258
10272675117
10272681465
10272686836
10272693855
10272699348
10272704414
10272710274
10272713447
10272720466
10272726082
10272732551
10272740913
10272747932
10272754463
10272763923
10272770881
10272777717
10272784797
10272790779
10272797493
10272803596
10272811470
10272817329
10272823555
10272831062
10272836738
10272843391
10272850105
10272855903
10272861457
10272868904
10272875068
10272879707
10272887946
10272893806
10272899909
10272906623
10272914191
10272920844
10272926643
10272933723
10272939704
10272947517
10272954353
10272961494
10272967597
10272974311
10272981940
10272988532
10272994575
10273000068
10273006965
10273014533
10273021308
10273027411
10273032905
10273042975
10273050788
10273057807
10273064765
10273069831
10273078315
10273084845
10273092597
10273098212
10273105841
10273112250
10273118598
10273125312
10273132697
10273139777
10273145636
10273152838
10273161200
10273166327
10273173529
10273180121
10273186652
10273192084
10273200202
10273206549
10273212103
10273218878
10273225897
10273232733
10273239325
10273245489
10273252264
10273258246
10273266119
10273273688
10273278876
10273288031
10273292670
10273301886
10273309210
10273316900
10273321112
10273337347
10273343756
10273351080
10273358038
10273364630
10273369696
10273377569
10273384832
10273390570
10273397650
10273403692
10273409185
10273417120
10273422430
10273430364
10273436590
10273443060
10273449285
10273455694
10273462286
10273468878
10273476629
10273482977
10273489202
10273493841
10273502203
10273507208
10273514349
10273522833
10273529119
10273536138
10273542486
10273547369
10273554937
10273560125
10273569280
10273575994
10273584173
10273589605
10273596929
10273602300
10273609929
10273615484
10273622075
10273630926
10273637883
10273641973
10273650090
10273655645
10273664006
10273669988
10273678716
10273686467
10273694036
10273698308
10273707219
10273717412
10273723394
10273730474
10273739141
10273747014
10273755498
10273763310
10273769902
10273778386
10273785893
10273794804
10273802007
10273809697
10273817387
10273825078
10273831059
10273838689
10273846867
10273855901
10273864384
10273872319
10273880192
10273888676
10273894414
10273904973
10273911748
10273919560
10273927495
10273937626
10273954716
10273979008
10273997990
10274010685
10274019047
10274029179
10274035771
10274044377
10274052983
10274059086
10274065678
10274071903
10274078373
10274084477
10274090885
10274097477
10274103581
10274109928
10274115665
10274121525
10274126591
10274134220
10274140690
10274146366
10274152592
10274158939
10274164249
10274171146
10274178104
10274183658
10274190128
10274197758
10274202946
10274209537
10274215397
10274221439
10274228031
10274234379
10274240543
10274246952
10274251712
10274259098
10274265873
10274271122
10274276432
10274281131
10274287845
10274293949
10274298526
10274307132
10274311527
10274316654
10274322208
10274328372
10274334720
10274340702
10274346805
10274351932
10274357486
10274363590
10274369693
10274376712
10274383182
10274392581
10274397586
10274404788
10274412112
10274418887
10274423953
10274430423
10274437198
10274442752
10274448611
10274454837
10274460818
10274468448
10274472598
10274478580
10274485721
10274494021
10274501895
10274507205
10274514651
10274521792
10274528811
10274537600
10274543826
10274552005
10274559939
10274567508
10274573428
10274581301
10274588259
10274595584
10274603274
10274609194
10274615481
10274624758
10274630557
10274637149
10274643008
10274650210
10274656497
10274664614
10274672427
10274677615
10274682986
10274689394
10274695376
10274702456
10274708865
10274715334
10274723574
10274728701
10274735354
10274741274
10274747195
10274754458
10274761050
10274768191
10274774538
10274780825
10274787722
10274793886
10274800356
10274811648
10274818178
10274824099
10274830690
10274835695
10274844851
10274851626
10274857790
10274863771
10274869448
10274875917
10274883974
10274889528
10274897768
10274905214
10274913210
10274919557
10274925539
10274931948
10274939943
10274945436
10274952272
10274959413
10274966432
10274973696
10274979494
10274986818
10274992799
10275001466
10275009645
10275018495
10275024538
10275033205
10275040163
10275046999
10275053957
10275059938
10275066347
10275076784
10275086610
10275093080
10275101564
10275108522
10275118287
10275128114
10275133790
10275142946
10275149965
10275156923
10275163697
10275172242
10275178163
10275185487
10275193360
10275197633
10275206605
10275214723
10275222657
10275229371
10275235353
10275244508
10275251222
10275258363
10275265443
10275274232
10275280518
10275286988
10275294007
10275302308
10275310670
10275317384
10275323304
10275334290
10275340333
10275347779
10275354981
10275362244
10275370423
10275374512
10275385193
10275391846
10275399842
10275405091
10275413697
10275424622
10275433716
10275442200
10275452149
10275460694
10275466736
10275476197
10275483704
10275490113
10275497437
10275503907
10275509339
10275516907
10275522705
10275529968
10275535218
10275541809
10275546509
10275552918
10275559754
10275567322
10275573120
10275579895
10275585083
10275591187
10275597351
10275603699
10275610657
10275618042
10275623962
10275630066
10275635132
10275641357
10275647339
10275654480
10275661865
10275666748
10275673828
10275681335
10275690979
10275697998
10275704040
10275712341
10275718750
10275725464
10275731933
10275738769
10275744140
10275751281
10275758239
10275763122
10275768859
10275776672
10275781799
10275788696
10275794982
10275800415
10275808593
10275815917
10275822509
10275828369
10275833618
10275839355
10275846313
10275852844
10275859680
10275867492
10275874633
10275881957
10275887389
10275894836
10275899902
10275906188
10275910827
10275918822
10275925780
10275932555
10275938354
10275944335
10275950744
10275957152
10275964110
10275975097
10275981994
10275986693
10275994567
10276000792
10276007201
10276013915
10276020568
10276029479
10276035521
10276043700
10276050231
10276056395
10276062072
10276070678
10276078307
10276084716
10276091368
10276094908
10276104186
10276110655
10276117430
10276123839
10276129332
10276137206
10276144347
10276150817
10276157897
10276165465
10276172362
10276179564
10276187132
10276193053
10276199217
10276206603
10276214659
10276219908
10276229796
10276238402
10276246641
10276255369
10276262633
10276271055
10276277952
10276282774
10276291014
10276295897
10276303282
10276310484
10276318113
10276324278
10276331114
10276337462
10276344053
10276351255
10276357969
10276364073
10276370481
10276377562
10276384092
10276390440
10276397093
10276403501
10276410337
10276418028
10276423216
10276429930
10276438108
10276444639
10276450804
10276457395
10276464231
10276470884
10276477232
10276483640
10276490537
10276497068
10276503355
10276510435
10276516782
10276523130
10276530088
10276536680
10276542844
10276548215
10276556699
10276564084
10276570310
10276577451
10276583799
10276592222
10276599912
10276607725
10276615049
10276620481
10276630063
10276635740
10276643918
10276649289
10276658200
10276663938
10276672177
10276677793
10276686032
10276690061
10276698484
10276705930
10276711911
10276720151
10276727048
10276734006
10276740781
10276747434
10276755612
10276763120
10276769467
10276779233
10276787656
10276793637
10276801755
10276809506
10276816647
10276822812
10276831784
10276839474
10276846921
10276852292
10276859738
10276868344
10276875485
10276884396
10276895260
10276902707
10276909115
10276916012
10276924801
10276931393
10276939816
10276945980
10276952755
10276958798
10276967038
10276973263
10276981442
10276987606
10276995114
10277002194
10277011044
10277017025
10277024594
10277030514
10277037594
10277044430
10277051876
10277060604
10277067928
10277073910
10277083675
10277089169
10277097652
10277116268
10277123470
10277130611
10277137630
10277142391
10277150204
10277155514
10277161861
10277168758
10277175167
10277180416
10277188106
10277194027
10277201046
10277206966
10277213253
10277220211
10277226558
10277232967
10277239498
10277245479
10277251827
10277258907
10277263912
10277270687
10277276729
10277283687
10277290523
10277296443
10277301265
10277308162
10277315059
10277322078
10277327327
10277333980
10277339351
10277345699
10277352535
10277360164
10277366206
10277372005
10277375606
10277383113
10277389644
10277395381
10277401057
10277409297
10277414424
10277421077
10277426326
10277432490
10277438167
10277443355
10277448970
10277456477
10277462947
10277468989
10277473811
10277479060
10277484370
10277493525
10277499263
10277505671
10277513057
10277519771
10277526973
10277531794
10277539424
10277545405
10277554744
10277560115
10277567073
10277570735
10277578547
10277585810
10277592219
10277597895
10277603999
10277609980
10277615840
10277621455
10277627497
10277633967
10277640681
10277647273
10277652278
10277659663
10277664668
10277671748
10277677668
10277686274
10277691950
10277698420
10277704646
10277711237
10277717036
10277723566
10277731379
10277736384
10277744440
10277749262
10277756892
10277764033
10277769526
10277776667
10277783686
10277790156
10277798090
10277803522
10277811213
10277817194
10277823420
10277827143
10277836359
10277844782
10277849665
10277857294
10277862543
10277869867
10277875177
10277883722
10277891474
10277897760
10277903437
10277909601
10277916864
10277923761
10277929987
10277935480
10277942743
10277949213
10277955438
10277963251
10277968073
10277975641
10277982843
10277989984
10277995966
10278002374
10278008905
10278015131
10278021905
10278028802
10278036676
10278041986
10278048822
10278054803
10278061334
10278069879
10278074945
10278082269
10278088678
10278096124
10278100824
10278108087
10278115533
10278123712
10278129937
10278139337
10278147516
10278154473
10278161981
10278169488
10278176202
10278183099
10278189813
10278196771
10278202691
10278209649
10278215875
10278223077
10278229119
10278235040
10278242120
10278247857
10278255670
10278262017
10278269097
10278275445
10278282159
10278289178
10278295831
10278302239
10278308770
10278315911
10278322503
10278328240
10278335686
10278342828
10278350152
10278356866
10278363885
10278370904
10278378167
10278384636
10278391778
10278398797
10278405999
10278413811
10278421135
10278427117
10278434197
10278441155
10278448601
10278454705
10278461846
10278469475
10278476799
10278484551
10278490166
10278499993
10278507195
10278514519
10278520989
10278529411
10278537163
10278545036
10278551567
10278560356
10278566948
10278575188
10278581780
10278590935
10278597649
10278604179
10278612602
10278621757
10278629326
10278638847
10278643913
10278653435
10278659660
10278666862
10278673149
10278681083
10278687675
10278697990
10278702812
10278711967
10278719352
10278728080
10278735222
10278743705
10278751579
10278759941
10278767875
10278773857
10278781059
10278786552
10278794914
10278801689
10278809623
10278816032
10278823783
10278830924
10278837638
10278844047
10278852897
10278861259
10278867301
10278875785
10278881828
10278889823
10278894340
10278904533
10278911552
10278918327
10278925956
10278933768
10278938834
10278947318
10278953971
10278961844
10278966727
10278976188
10278986258
10278993277
10278998832
10279005118
10279009513
10279017936
10279025199
10279031424
10279037040
10279043265
10279049491
10279055899
10279061576
10279070243
10279075919
10279080924
10279087577
10279092642
10279099967
10279106925
10279113272
10279120047
10279126700
10279132254
10279138663
10279144339
10279151480
10279157340
10279162711
10279168753
10279175528
10279179984
10279186453
10279190848
10279199698
10279205252
10279211661
10279216605
10279223868
10279229910
10279235220
10279242544
10279248953
10279254935
10279261404
10279267325
10279273001
10279277456
10279283987
10279290518
10279297293
10279302115
10279310049
10279313589
10279321096
10279328360
10279334463
10279340384
10279346548
10279352957
10279359060
10279364431
10279370596
10279376882
10279384085
10279390066
10279395681
10279401358
10279407827
10279415029
10279422476
10279428518
10279437551
10279444631
10279451772
10279457327
10279464712
10279472952
10279479849
10279486807
10279494009
10279499868
10279507070
10279513601
10279518606
10279526174
10279533376
10279539480
10279544973
10279552297
10279557790
10279564870
10279572011
10279578359
10279586110
10279592458
10279596242
10279604909
10279611684
10279618093
10279621938
10279631032
10279637746
10279644399
10279649160
10279657338
10279661977
10279669545
10279677480
10279684621
10279691152
10279697560
10279703420
10279709889
10279715688
10279722157
10279728383
10279735097
10279742909
10279750050
10279755422
10279762441
10279768910
10279775075
10279782460
10279787831
10279795827
10279801381
10279808705
10279814198
10279822255
10279827748
10279837331
10279845265
10279852345
10279858937
10279863759
10279870839
10279877919
10279883473
10279891285
10279897572
10279904591
10279911305
10279916676
10279923817
10279929249
10279936451
10279942189
10279950123
10279955555
10279962757
10279968190
10279976490
10279983082
10279990467
10279999073
10280005604
10280011891
10280018543
10280024220
10280030872
10280037647
10280044850
10280052479
10280057789
10280066639
10280074451
10280083424
10280089100
10280097889
10280103687
10280112110
10280118214
10280125721
10280131153
10280138965
10280145130
10280152698
10280158985
10280165577
10280171985
10280178699
10280185230
10280192371
10280199390
10280206775
10280217273
10280224842
10280231128
10280237293
10280245105
10280250660
10280259937
10280266101
10280273365
10280281177
10280288318
10280294300
10280300830
10280308704
10280315235
10280323230
10280330432
10280336414
10280344470
10280350452
10280358875
10280365405
10280373157
10280379443
10280388171
10280394336
10280403003
10280409106
10280416980
10280424609
10280431323
10280439380
10280448657
10280454577
10280463000
10280471179
10280477893
10280483813
10280492907
10280500476
10280510180
10280514758
10280523730
10280530200
10280539050
10280547107
10280554980
10280561999
10280569567
10280576647
10280583972
10280591784
10280596789
10280605151
10280610522
10280617175
10280622302
10280630419
10280636767
10280642931
10280647753
10280654589
10280662096
10280668749
10280675158
10280680224
10280687914
10280691393
10280699450
10280707079
10280713244
10280719714
10280724169
10280731554
10280736803
10280746386
10280752123
10280760546
10280765001
10280773546
10280779406
10280788561
10280792894
10280800890
10280808764
10280814928
10280821032
10280826830
10280832872
10280838549
10280843615
10280851915
10280857592
10280862352
10280868944
10280873766
10280880968
10280885729
10280893724
10280899340
10280905260
10280908861
10280916490
10280923448
10280929186
10280935472
10280939806
10280946825
10280952989
10280957933
10280964342
10280970811
10280975572
10280983263
10280990160
10280997179
10281002367
10281007982
10281014879
10281019151
10281026903
10281033372
10281041002
10281047227
10281053453
10281059617
10281065660
10281071153
10281077989
10281085130
10281091722
10281097276
10281103746
10281109483
10281114244
10281121507
10281128831
10281134996
10281141893
10281146897
10281154344
10281159837
10281168443
10281175401
10281181993
10281189500
10281194322
10281202806
10281207994
10281215501
10281220506
10281228623
10281232530
10281240647
10281247666
10281253953
10281260545
10281268357
10281276231
10281281663
10281288621
10281295090
10281301499
10281307786
10281314927
10281322312
10281329026
10281336960
10281343247
10281352402
10281358262
10281366623
10281372849
10281381272
10281388413
10281395127
10281401474
10281408188
10281414475
10281421921
10281428269
10281434861
10281442673
10281449509
10281455429
10281462021
10281468796
10281475266
10281481797
10281488693
10281495163
10281499985
10281507248
10281514328
10281520310
10281527939
10281533798
10281541000
10281547043
10281554184
10281560410
10281567490
10281573715
10281579147
10281585556
10281592758
10281599167
10281604721
10281612411
10281617966
10281626083
10281632431
10281639145
10281645492
10281652450
10281658920
10281665573
10281672287
10281679062
10281685348
10281691818
10281700058
10281705490
10281712509
10281718979
10281725265
10281733932
10281740219
10281745712
10281752792
10281758285
10281765426
10281773178
10281779403
10281787521
10281794906
10281800826
10281808273
10281814315
10281821334
10281828903
10281835616
10281842025
10281850021
10281856002
10281864059
10281869796
10281877914
10281885299
10281890792
10281899398
10281906661
10281912459
10281920089
10281927413
10281935042
10281940475
10281950240
10281957686
10281965377
10281972457
10281978316
10281987166
10281994857
10282003829
10282014266
10282021529
10282028121
10282038314
10282044295
10282053084
10282058638
10282067549
10282074874
10282082686
10282090560
10282097518
10282102950
10282111250
10282116866
10282124739
10282133467
10282140059
10282147933
10282154829
10282160323
10282168990
10282174361
10282183943
10282190230
10282197432
10282205366
10282212080
10282218794
10282227034
10282232832
10282240889
10282249556
10282256941
10282262800
10282272200
10282278059
10282287397
10282293440
10282301130
10282309736
10282316694
10282322004
10282330488
10282335249
10282343367
10282348127
10282355940
10282360823
10282367536
10282374983
10282379866
10282383833
10282392439
10282398603
10282405378
10282412153
10282419904
10282426374
10282431684
10282439497
10282444807
10282450849
10282458357
10282464826
10282468488
10282475690
10282480878
10282488081
10282493269
10282502424
10282507795
10282513959
10282521284
10282527448
10282533796
10282538495
10282545514
10282552411
10282558332
10282565473
10282571699
10282577009
10282582868
10282589704
10282595929
10282601362
10282607831
10282613630
10282619123
10282624677
10282631269
10282637921
10282643720
10282657209
10282663434
10282670148
10282676374
10282681500
10282689862
10282698468
10282704328
10282710370
10282714704
10282721539
10282728070
10282734784
10282739484
10282746320
10282751141
10282759015
10282765118
10282772504
10282778607
10282785016
10282790570
10282797406
10282803448
10282809125
10282816632
10282823834
10282830060
10282836651
10282841168
10282848919
10282853619
10282860028
10282865033
10282873211
10282879315
10282885296
10282891278
10282897686
10282904889
10282912152
10282918255
10282923626
10282931927
10282938092
10282944317
10282950726
10282958111
10282964703
10282971478
10282978802
10282983929
10282991680
10282995709
10283003704
10283011883
10283018475
10283024761
10283029400
10283037396
10283042156
10283050030
10283055889
10283063458
10283069500
10283076336
10283082989
10283089214
10283095867
10283103008
10283110760
10283116253
10283124370
10283131023
10283137737
10283146343
10283151531
10283158855
10283165996
10283172344
10283178142
10283183513
10283188640
10283197124
10283203777
10283210064
10283216045
10283222026
10283227947
10283234111
10283245647
10283253520
10283263347
10283270061
10283279338
10283284954
10283293743
10283298992
10283306804
10283313640
10283322002
10283328410
10283333293
10283341045
10283348308
10283354961
10283362285
10283368571
10283373637
10283382426
10283390239
10283398357
10283404521
10283410869
10283416423
10283424235
10283430400
10283436442
10283438518
10283447795
10283454997
10283462016
10283468791
10283476725
10283482463
10283488505
10283499431
10283505290
10283512492
10283519694
10283527018
10283532939
10283540507
10283547404
10283553446
10283562419
10283569499
10283576457
10283583415
10283590067
10283597087
10283605631
10283612528
10283618693
10283626627
10283632365
10283640910
10283644999
10283653544
10283660380
10283667338
10283671610
10283681437
10283689677
10283697611
10283703898
10283712504
10283719584
10283727335
10283736124
10283742106
10283750162
10283758646
10283765970
10283775004
10283784464
10283790384
10283798807
10283807779
10283814127
10283822733
10283830728
10283837442
10283845621
10283852274
10283861063
10283866983
10283874124
10283880167
10283890909
10283895426
10283905252
10283912943
10283922647
10283930521
10283936685
10283945474
10283954324
10283968362
10283973184
10283983987
10283991067
10283998147
10284002298
10284011941
10284019021
10284026102
10284033304
10284041299
10284045999
10284055154
10284061807
10284069070
10284075601
10284084146
10284090799
10284099160
10284104959
10284113565
10284119424
10284128518
10284135049
10284143533
10284151345
10284157632
10284165505
10284173318
10284179360
10284188455
10284194558
10284201943
10284209817
10284214639
10284224343
10284232888
10284238809
10284245339
10284253884
10284261514
10284270303
10284274941
10284283669
10284290078
10284297768
10284304299
10284313821
10284321572
10284329018
10284337441
10284343361
10284351296
10284359047
10284365029
10284373452
10284382363
10284390786
10284399697
10284406472
10284416359
10284423500
10284432778
10284443764
10284451149
10284459938
10284466774
10284472756
10284481484
10284487404
10284495949
10284502419
10284511513
10284520302
10284528298
10284536781
10284546425
10284553383
10284563148
10284570351
10284579018
10284585854
10284593605
10284600441
10284610878
10284615639
10284624183
10284631386
10284640053
10284646950
10284656105
10284663978
10284672645
10284680824
10284687233
10284696449
10284704567
10284712806
10284721412
10284731178
10284738075
10284744789
10284755775
10284765296
10284772315
10284780616
10284787574
10284794227
10284801917
10284808021
10284816444
10284824989
10284832313
10284838233
10284846351
10284854102
10284860389
10284868201
10284876197
10284882117
10284890174
10284897803
10284902625
10284912025
10284920081
10284926368
10284933753
10284943519
10284950782
10284959083
10284966468
10284974646
10284980994
10284990210
10284996863
10285004920
10285014563
10285023169
10285031531
10285039221
10285045752
10285050757
10285061927
10285070227
10285077796
10285084998
10285092505
10285099097
10285108130
10285117346
10285124304
10285132910
10285139319
10285148535
10285157324
10285165930
10285173010
10285179480
10285187720
10285195837
10285203100
10285212805
10285221350
10285227881
10285234961
10285243872
10285250769
10285258581
10285265600
10285275244
10285283117
10285291967
10285298742
10285307226
10285312231
10285323095
10285328039
10285339147
10285344335
10285355749
10285363745
10285371984
10285378027
10285386389
10285393957
10285401586
10285407995
10285414648
10285421911
10285429479
10285435583
10285439550
10285449316
10285455602
10285462011
10285473791
10285482885
10285493200
10285499547
10285506017
10285514501
10285520544
10285528051
10285534276
10285540868
10285547765
10285554357
10285560033
10285565282
10285573217
10285578405
10285586278
10285592992
10285599096
10285605504
10285611608
10285617711
10285621862
10285629064
10285634130
10285640416
10285647679
10285653295
10285659276
10285663426
10285671483
10285678868
10285684850
10285690770
10285696507
10285701817
10285707372
10285714208
10285719029
10285725987
10285730565
10285737401
10285743321
10285748753
10285754857
10285761876
10285768285
10285773045
10285780919
10285786290
10285792088
10285797337
10285803746
10285810765
10285815648
10285822056
10285828221
10285833897
10285841343
10285848240
10285854039
10285859959
10285866917
10285873326
10285879063
10285884983
10285890782
10285898106
10285903294
10285910069
10285915196
10285922398
10285928685
10285935887
10285942478
10285948948
10285955418
10285962254
10285968174
10285973728
10285981480
10285986973
10285996311
10286002354
10286008518
10286014500
10286021336
10286027927
10286034214
10286043736
10286050205
10286057468
10286065037
10286071812
10286078098
10286086216
10286092014
10286100254
10286106724
10286112156
10286117710
10286125034
10286130405
10286138828
10286145969
10286152439
10286156528
10286164951
10286168979
10286178013
10286182041
10286190952
10286198337
10286204868
10286211277
10286217929
10286225193
10286231845
10286237400
10286244174
10286250949
10286259860
10286267490
10286272312
10286280002
10286287021
10286294772
10286300510
10286308322
10286311801
10286319003
10286324680
10286331943
10286335483
10286343356
10286350436
10286356906
10286362216
10286368259
10286374667
10286380710
10286387668
10286395846
10286402621
10286407809
10286414157
10286423373
10286429721
10286435702
10286443210
10286450961
10286457492
10286463839
10286469882
10286475741
10286480807
10286487338
10286495150
10286502108
10286508212
10286513522
10286522799
10286530184
10286537753
10286545809
10286551608
10286558444
10286564303
10286572482
10286579440
10286587863
10286596407
10286601840
10286609469
10286616793
10286623019
10286630587
10286636935
10286643832
10286652804
10286659212
10286664461
10286671480
10286680880
10286689669
10286695772
10286702303
10286714815
10286724032
10286732943
10286740206
10286746248
10286753451
10286761324
10286766695
10286775057
10286782015
10286788790
10286795870
10286802462
10286809725
10286816927
10286823946
10286829744
10286836885
10286844210
10286851351
10286857210
10286864717
10286872225
10286879366
10286884798
10286892061
10286900301
10286908113
10286914156
10286922517
10286930879
10286936739
10286945100
10286952791
10286957307
10286966890
10286971712
10286981294
10286987764
10286997652
10287002290
10287012422
10287017183
10287027254
10287034578
10287041353
10287048311
10287055879
10287060029
10287068086
10287074617
10287080781
10287085115
10287092744
10287100923
10287106111
10287115266
10287120759
10287128572
10287134675
10287141084
10287149324
10287155610
10287161103
10287167146
10287173921
10287178620
10287186677
10287192231
10287200105
10287207307
10287213166
10287219025
10287225739
10287231599
10287239045
10287244843
10287250031
10287257172
10287262238
10287269013
10287274873
10287283234
10287289155
10287295808
10287301118
10287307770
10287313019
10287318940
10287324433
10287329560
10287338044
10287344452
10287351838
10287355439
10287363190
10287370453
10287377533
10287384308
10287390168
10287395172
10287400849
10287406708
10287412995
10287418427
10287424958
10287430756
10287435517
10287442719
10287447663
10287454926
10287458710
10287468231
10287474091
10287479462
10287486054
10287491181
10287497223
10287503754
10287509735
10287514801
10287521759
10287526703
10287534149
10287540375
10287546478
10287552460
10287558807
10287566376
10287572418
10287578094
10287582550
10287589203
10287595245
10287602936
10287610321
10287616852
10287622528
10287629791
10287635040
10287642914
10287649261
10287655914
10287662140
10287668487
10287675201
10287682647
10287688507
10287693817
10287702423
10287709381
10287715728
10287722015
10287727020
10287735076
10287739776
10287746612
10287753570
10287760711
10287765960
10287773834
10287777435
10287785613
10287793243
10287800140
10287807220
10287814239
10287822112
10287826263
10287835845
10287843108
10287849944
10287857085
10287864410
10287871917
10287878142
10287884124
10287891814
10287899261
10287906768
10287912810
10287919829
10287926726
10287934600
10287943572
10287950774
10287961455
10287968230
10287975676
10287982329
10287988921
10287995879
10288003020
10288008513
10288015654
10288022856
10288028289
10288034697
10288040068
10288048186
10288053801
10288061797
10288068999
10288075408
10288079192
10288086882
10288094695
10288101286
10288107451
10288113921
10288120573
10288126799
10288132475
10288139311
10288146574
10288151945
10288160612
10288166655
10288172819
10288178984
10288185393
10288192656
10288199736
10288205778
10288213957
10288218962
10288224821
10288233183
10288239714
10288248381
10288257292
10288262724
10288271025
10288278898
10288285734
10288293303
10288296049
10288306974
10288314848
10288321989
10288327543
10288334806
10288342558
10288348356
10288356108
10288363493
10288370390
10288377531
10288384489
10288391752
10288398222
10288406034
10288413603
10288419584
10288427702
10288434843
10288441679
10288449979
10288458707
10288464994
10288474149
10288483182
10288490079
10288495756
10288503934
10288512174
10288519742
10288526212
10288535734
10288543912
10288551481
10288555997
10288564969
10288573758
10288579435
10288588651
10288594510
10288599393
10288612455
10288617215
10288629788
10288635526
10288645169
10288650235
10288660123
10288667630
10288675687
10288679959
10288689420
10288693814
10288703092
10288710416
10288717130
10288723233
10288732388
10288739163
10288744290
10288749966
10288757901
10288761563
10288771451
10288778531
10288784756
10288790066
10288796292
10288803799
10288808438
10288815518
10288822964
10288830960
10288836575
10288843899
10288849759
10288856411
10288860074
10288867825
10288873806
10288880459
10288887905
10288892727
10288898831
10288905300
10288912625
10288919033
10288923367
10288931057
10288935391
10288942959
10288949795
10288955898
10288961270
10288969814
10288975552
10288982388
10288988430
10288993191
10289000759
10289005520
10289013088
10289019619
10289025356
10289030300
10289036465
10289041470
10289048611
10289053310
10289061489
10289067409
10289073086
10289078579
10289084438
10289090237
10289095913
10289101345
10289107082
10289113735
10289120022
10289125515
10289131862
10289137844
10289142971
10289149929
10289157070
10289161831
10289168178
10289173854
10289180080
10289186000
10289192226
10289198146
10289205226
10289211452
10289217617
10289225490
10289231288
10289239467
10289246974
10289253200
10289258693
10289271144
10289277065
10289282008
10289289150
10289294154
10289301662
10289307460
10289313564
10289320583
10289325587
10289331752
10289340968
10289347194
10289353847
10289360744
10289365810
10289373744
10289378688
10289385585
10289392055
10289399013
10289406032
10289412135
10289417140
10289424830
10289431727
10289437220
10289445887
10289452845
10289456508
10289464259
10289470362
10289476832
10289483424
10289489772
10289496913
10289503810
10289509242
10289514674
10289522181
10289527430
10289537074
10289544215
10289549098
10289555995
10289562892
10289569972
10289575099
10289582972
10289589076
10289595484
10289601954
10289608241
10289614893
10289619776
10289626612
10289634303
10289641627
10289646815
10289654261
10289660609
10289666956
10289673304
10289680628
10289689051
10289694300
10289701685
10289706751
10289713282
10289718714
10289727015
10289734949
10289739771
10289746058
10289753138
10289760035
10289766077
10289773523
10289778955
10289787134
10289793909
10289800196
10289806543
10289812952
10289820948
10289834497
10289838648
10289848474
10289855615
10289863123
10289868555
10289879236
10289886926
10289891931
10289899072
10289906152
10289912744
10289917749
10289925684
10289931482
10289938745
10289945703
10289951318
10289958337
10289964380
10289971399
10289977746
10289983972
10289992273
10289998437
10290007165
10290013208
10290019616
10290027490
10290035913
10290041894
10290048486
10290054712
10290064660
10290070764
10290077783
10290083947
10290092187
10290098169
10290105859
10290111901
10290119042
10290127038
10290132470
10290140161
10290147180
10290152917
10290161645
10290167077
10290174828
10290180139
10290188073
10290195947
10290203149
10290209313
10290217126
10290224816
10290231347
10290239037
10290246117
10290253991
10290259484
10290269677
10290277611
10290285302
10290291772
10290299645
10290307091
10290314904
10290319481
10290329430
10290337121
10290343041
10290349572
10290357689
10290364159
10290372521
10290378991
10290387108
10290394188
10290402367
10290408959
10290417259
10290424034
10290431359
10290437035
10290446007
10290452355
10290460106
10290465965
10290472740
10290479454
10290485741
10290491112
10290499229
10290505394
10290512047
10290518883
10290523582
10290528770
10290539146
10290544029
10290552025
10290560387
10290568260
10290576500
10290584129
10290590477
10290600364
10290607872
10290615623
10290621910
10290628196
10290634788
10290640770
10290646629
10290653526
10290660118
10290666404
10290672630
10290679039
10290684898
10290691124
10290695762
10290704246
10290710899
10290715965
10290722251
10290726524
10290733604
10290736961
10290745201
10290751548
10290757224
10290764366
10290768882
10290775047
10290779746
10290786643
10290793662
10290799522
10290805991
10290810508
10290816611
10290822166
10290829917
10290836204
10290841880
10290847800
10290853721
10290859946
10290864524
10290871116
10290878745
10290884788
10290891013
10290895408
10290902488
10290907248
10290914084
10290922080
10290928000
10290934226
10290939780
10290945823
10290952109
10290958152
10290963034
10290970237
10290976096
10290982688
10290989585
10290996421
10291002768
10291010398
10291015891
10291021079
10291029135
10291035605
10291042136
10291049582
10291055502
10291063803
10291070700
10291076560
10291081870
10291089926
10291093710
10291101889
10291111594
10291119955
10291125265
10291133322
10291140097
10291144980
10291153647
10291167807
10291171835
10291181296
10291188437
10291194967
10291201986
10291208517
10291214743
10291221274
10291227743
10291234396
10291240500
10291247152
10291255026
10291260214
10291268332
10291274069
10291282553
10291288168
10291296041
10291299948
10291308676
10291314291
10291322836
10291326620
10291334249
10291340414
10291347738
10291354757
10291361227
10291367941
10291374288
10291381551
10291386373
10291393392
10291399740
10291406149
10291412679
10291419759
10291424825
10291432760
10291437765
10291445211
10291452413
10291458944
10291466085
10291472616
10291478109
10291484395
10291493123
10291498861
10291504354
10291511373
10291517232
10291524434
10291529866
10291537496
10291542806
10291551351
10291557454
10291564901
10291572347
10291578878
10291584554
10291591695
10291598470
10291605489
10291612996
10291620503
10291626546
10291633748
10291641622
10291647237
10291655477
10291662618
10291668782
10291675923
10291680806
10291690083
10291696797
10291703938
10291709493
10291716512
10291720784
10291730489
10291738545
10291744282
10291752766
10291760518
10291765645
10291778035
10291783772
10291796834
10291805562
10291811238
10291818867
10291826680
10291834431
10291840535
10291849324
10291857808
10291865132
10291872639
10291878987
10291886738
10291892292
10291899617
10291907307
10291913288
10291920979
10291928852
10291936176
10291941609
10291949238
10291954792
10291963825
10291971577
10291977253
10291984943
10291991596
10291999348
10292004414
10292013020
10292020161
10292026997
10292036701
10292042683
10292051289
10292057087
10292062885
10292073139
10292079609
10292090107
10292097553
10292103412
10292108967
10292118671
10292125202
10292133136
10292137592
10292147663
10292152057
10292161579
10292165668
10292174152
10292181415
10292186237
10292192279
10292200885
10292206378
10292212604
10292218463
10292224811
10292231830
10292238239
10292243671
10292251911
10292258380
10292263751
10292270038
10292276874
10292282855
10292291583
10292298602
10292306842
10292312946
10292316608
10292325275
10292328937
10292336749
10292343097
10292349383
10292355914
10292362201
10292368060
10292374408
10292381183
10292387408
10292393817
10292400165
10292405475
10292411761
10292419330
10292423968
10292430743
10292436969
10292442767
10292447955
10292455462
10292461383
10292469378
10292475787
10292482012
10292487750
10292496112
10292504473
10292515948
10292522296
10292528765
10292534197
10292540484
10292546465
10292552874
10292558733
10292564105
10292570940
10292574603
10292584063
10292588763
10292595843
10292600665
10292606707
10292613787
10292618182
10292625323
10292631914
10292638201
10292643328
10292650896
10292656634
10292663347
10292667071
10292675371
10292681536
10292687456
10292693560
10292699602
10292707171
10292711748
10292719072
10292727007
10292733294
10292738665
10292745317
10292752337
10292758440
10292764238
10292772844
10292778948
10292786943
10292793047
10292800676
10292804582
10292813066
10292819963
10292826555
10292835039
10292840105
10292847734
10292854875
10292860735
10292867998
10292874651
10292879839
10292888628
10292895769
10292902055
10292907487
10292913957
10292920549
10292927446
10292935197
10292940019
10292947832
10292952653
10292960893
10292965654
10292974687
10292980668
10292988786
10292995073
10293002458
10293006181
10293014055
10293020768
10293027421
10293035356
10293040239
10293048539
10293053788
10293061418
10293068010
10293076921
10293081681
10293090898
10293097062
10293103593
10293107682
10293116654
10293123673
10293132096
10293138871
10293145463
10293152177
10293158769
10293165421
10293171830
10293177079
10293183915
10293193681
10293199052
10293205582
10293213395
10293219132
10293224747
10293232560
10293238175
10293245133
10293250565
