10007044877
10007050065
10007055619
10007060075
10007065568
10007071488
10007076188
10007083024
10007087602
10007093949
10007099809
10007105668
10007111649
10007116898
10007123490
10007129716
10007136552
10007143143
10007150223
10007156266
10007161881
10007168290
10007175370
10007182572
10007189896
10007196671
10007202652
10007208390
10007215714
10007223710
10007230240
10007236588
10007244645
10007253250
10007260270
10007268082
10007275894
10007282242
10007289505
10007296097
10007309769
10007317215
10007327469
10007339005
10007353714
10007362259
10007369278
10007376175
10007384293
10007392349
10007400467
10007407120
10007414505
10007422623
10007430435
10007436844
10007445084
10007453384
10007458816
10007466507
10007475052
10007481155
10007490066
10007498855
10007505874
10007514785
10007521988
10007529800
10007536697
10007546524
10007553360
10007561355
10007567947
10007578750
10007585098
10007594741
10007601882
10007610610
10007616958
10007624404
10007631179
10007639236
10007645645
10007653701
10007660354
10007672134
10007678237
10007686111
10007692397
10007701369
10007708511
10007717300
10007723220
10007730788
10007739822
10007746352
10007754287
10007762282
10007769179
10007778762
10007787612
10007794814
10007801528
10007810439
10007818007
10007825942
10007835708
10007846572
10007853286
10007862441
10007871169
10007877761
10007886550
10007894789
10007901992
10007908217
10007918166
10007926222
10007933913
10007943129
10007950026
10007959303
10007968398
10007975783
10007990675
10008001112
10008009047
10008016249
10008022902
10008031752
10008040175
10008046950
10008053847
10008062269
10008069105
10008078139
10008089491
10008098829
10008105665
10008114821
10008122389
10008129225
10008138563
10008147474
10008154432
10008162001
10008170668
10008176710
10008185865
10008194960
10008202284
10008208631
10008216017
10008224806
10008233717
10008241651
10008250379
10008257948
10008266126
10008272596
10008282056
10008291090
10008300001
10008307630
10008314283
10008323011
10008330579
10008337476
10008346509
10008353467
10008362806
10008370008
10008376844
10008384290
10008390577
10008399915
10008408521
10008415296
10008423780
10008431592
10008438855
10008446668
10008455091
10008462903
10008469495
10008476636
10008485120
10008493665
10008502942
10008509351
10008519849
10008527905
10008535047
10008541577
10008550488
10008560010
10008567822
10008575085
10008583020
10008589917
10008599377
10008609936
10008621228
10008628735
10008637219
10008645459
10008658703
10008668225
10008679089
10008687146
10008694714
10008702771
10008709485
10008718029
10008725964
10008733715
10008740551
10008748486
10008755200
10008763073
10008770459
10008777355
10008785107
10008792126
10008799511
10008806530
10008813488
10008820446
10008828869
10008837170
10008844006
10008852856
10008859081
10008867626
10008873974
10008882092
10008887951
10008896801
10008905407
10008912548
10008919201
10008927380
10008932018
10008940563
10008947460
10008956188
10008962536
10008970775
10008977367
10008985485
10008992565
10008999828
10009008800
10009015819
10009023082
10009031078
10009038341
10009045848
10009053905
10009062267
10009068920
10009077709
10009085338
10009092540
10009100536
10009107921
10009115734
10009124095
10009132274
10009139293
10009145702
10009152904
10009160045
10009166271
10009173961
10009181102
10009188853
10009197459
10009203746
10009213084
10009220409
10009228099
10009236461
10009243907
10009249217
10009257762
10009263927
10009273936
10009282969
10009289256
10009298228
10009305064
10009314036
10009321238
10009328990
10009336802
10009346751
10009354441
10009361033
10009370005
10009376841
10009385325
10009391551
10009397532
10009405528
10009411143
10009418650
10009424143
10009432139
10009438365
10009444895
10009451060
10009458018
10009465769
10009471995
10009478342
10009484873
10009492442
10009497141
10009504771
10009510691
10009519114
10009525156
10009530344
10009537119
10009542307
10009548411
10009555491
10009562998
10009569040
10009574778
10009580881
10009586680
10009593149
10009598765
10009606211
10009612558
10009620005
10009628733
10009634531
10009643015
10009649301
10009657236
10009663095
10009669260
10009677317
10009685434
10009691599
10009697702
10009703928
10009712473
10009721872
10009725290
10009732919
10009739023
10009747019
10009753183
10009761118
10009767404
10009774912
10009781076
10009788828
10009794931
10009803903
10009810190
10009816904
10009823740
10009830514
10009839242
10009844491
10009851938
10009858652
10009865915
10009873727
10009883005
10009889779
10009898935
10009905465
10009912668
10009920236
10009925729
10009934091
10009941903
10009949044
10009960458
10009967782
10009976754
10009983224
10009990243
10009996774
10010003671
10010018929
10010026925
10010034310
10010043893
10010050546
10010058358
10010065377
10010076180
10010082284
10010090829
10010095956
10010104439
10010110116
10010118661
10010125558
10010133919
10010138619
10010147042
10010152291
10010160958
10010166939
10010173592
10010180733
10010187630
10010195076
10010202462
10010210152
10010217659
10010224862
10010232186
10010238350
10010245674
10010254280
10010261483
10010268868
10010276253
10010283394
10010287850
10010294625
10010305367
10010312020
10010318611
10010325203
10010332283
10010339119
10010348335
10010355293
10010362801
10010369392
10010375435
10010384834
10010389778
10010399055
10010404854
10010412361
10010419929
10010428047
10010436653
10010444038
10010450691
10010458137
10010465462
10010472969
10010479988
10010487312
10010493538
10010499885
10010506538
10010514778
10010521797
10010530830
10010538337
10010547737
10010555061
10010560493
10010570625
10010577705
10010585700
10010593086
10010599250
10010608833
10010613716
10010621040
10010629951
10010637397
10010644965
10010652290
10010660041
10010667976
10010692573
10010701057
10010711494
10010720832
10010728583
10010736579
10010743171
10010750739
10010756476
10010763801
10010770698
10010777656
10010785834
10010793464
10010799567
10010806342
10010813300
10010820990
10010827033
10010833869
10010839972
10010845893
10010850043
10010858588
10010864569
10010869330
10010876715
10010881476
10010889777
10010895697
10010901618
10010906867
10010914374
10010920661
10010926642
10010934149
10010939642
10010945746
10010951239
10010956671
10010963263
10010968573
10010975470
10010980292
10010986700
10010990973
10010997076
10011002142
10011007819
10011012823
10011019720
10011024786
10011030585
10011037665
10011042792
10011050726
10011056097
10011062933
10011068121
10011073919
10011080938
10011086371
10011093695
10011099371
10011105413
10011111883
10011118780
10011123724
10011129950
10011135015
10011141851
10011149847
10011155523
10011161993
10011167669
10011173529
10011179266
10011185858
10011191412
10011198126
10011203741
10011210211
10011216009
10011222845
10011227911
10011234075
10011240972
10011248235
10011254339
10011260137
10011266119
10011271734
10011277471
10011282903
10011289312
10011296209
10011302496
10011308050
10011316350
10011321783
10011327703
10011335576
10011348455
10011354864
10011362554
10011369024
10011376165
10011383367
10011389837
10011398687
10011403630
10011411321
10011418462
10011423955
10011430181
10011438481
10011443914
10011449590
10011456426
10011464238
10011469792
10011477910
10011484197
10011489995
10011496037
10011502873
10011508916
10011516484
10011523564
10011529363
10011535588
10011542546
10011548711
10011555913
10011562077
10011568059
10011574223
10011581609
10011587895
10011595769
10011601811
10011607548
10011613713
10011619389
10011627019
10011631901
10011639775
10011645451
10011653142
10011658269
10011666081
10011672490
10011678166
10011685551
10011691288
10011697697
10011703434
10011710087
10011717411
10011723271
10011730595
10011736576
10011742436
10011750859
10011756535
10011762272
10011770085
10011776493
10011783634
10011789738
10011795902
10011803532
10011809818
10011816105
10011822575
10011828434
10011834660
10011841007
10011851139
10011856327
10011863102
10011870731
10011877384
10011884464
10011890934
10011898502
10011904972
10011911930
10011918400
10011925358
10011931949
10011939518
10011945865
10011953739
10011959903
10011968143
10011974186
10011981693
10011991092
10011998111
10012005191
10012014835
10012022159
10012029911
10012037540
10012044925
10012052188
10012059146
10012067508
10012074405
10012082462
10012089176
10012092777
10012101932
10012107425
10012114322
10012123355
10012130069
10012137149
10012144107
10012149600
10012156924
10012163089
10012169864
10012178470
10012187198
10012193607
10012201053
10012207400
10012213504
10012222415
10012229312
10012235110
10012243655
10012249576
10012256534
10012264590
10012269412
10012279056
10012283755
10012292483
10012299136
10012307864
10012314822
10012321536
10012328982
10012335879
10012342410
10012351687
10012360354
10012367190
10012373538
10012380862
10012388552
10012395754
10012403201
10012410220
10012416689
10012422732
10012428469
10012434268
10012440371
10012446475
10012453249
10012459231
10012466433
10012472292
10012477724
10012485110
10012491457
10012497011
10012502871
10012509096
10012517580
10012522341
10012528811
10012534365
10012541872
10012547854
10012553591
10012561037
10012568239
10012573916
10012579226
10012585634
10012590944
10012597780
10012606264
10012612246
10012618044
10012625185
10012630312
10012635988
10012642763
10012648256
10012654970
10012666017
10012670778
10012677431
10012684328
10012689699
10012695375
10012705934
10012713075
10012718874
10012724550
10012731752
10012737001
10012742616
10012749391
10012755006
10012760133
10012767519
10012772523
10012778017
10012785280
10012792238
10012797243
10012804689
10012809938
10012815980
10012821840
10012827333
10012834535
10012839906
10012845277
10012852113
10012857118
10012864503
10012870241
10012875917
10012882570
10012887574
10012895387
10012899904
10012905580
10012912721
10012917604
10012924989
10012930604
10012937379
10012943116
10012950074
10012955690
10012961061
10012968324
10012973268
10012980409
10012986207
10012993226
10012998719
10013004212
10013011598
10013017457
10013029725
10013039124
10013046937
10013052613
10013060670
10013066529
10013072694
10013079835
10013085938
10013092774
10013098878
10013104249
10013111939
10013117310
10013123475
10013130799
10013138489
10013144593
10013150269
10013155579
10013163697
10013170105
10013175843
10013182435
10013190003
10013195618
10013201477
10013208130
10013213868
10013221009
10013229431
10013235047
10013240723
10013249817
10013256531
10013263306
10013269776
10013276551
10013284607
10013292420
10013299866
10013306214
10013313599
10013319702
10013327393
10013333191
10013340759
10013348450
10013354065
10013359741
10013368408
10013373413
10013381164
10013388550
10013394653
10013400879
10013407165
10013414184
10013420349
10013426575
10013432678
10013439270
10013445434
10013452392
10013458618
10013465149
10013471313
10013478943
10013487915
10013493469
10013501098
10013507629
10013513427
10013520568
10013528625
10013534912
10013539855
10013549560
10013555236
10013561645
10013571533
10013578185
10013584960
10013590637
10013598815
10013604247
10013611694
10013619750
10013626220
10013632446
10013639159
10013647338
10013653991
10013661987
10013668822
10013674865
10013681762
10013689330
10013696105
10013703796
10013710692
10013717773
10013724608
10013730590
10013737365
10013743529
10013749450
10013758300
10013765075
10013773131
10013780028
10013786986
10013793883
10013800231
10013809325
10013815673
10013824950
10013832457
10013839049
10013846068
10013852721
10013860106
10013867308
10013877562
10013883971
10013890318
10013899046
10013906310
10013913146
10013920409
10013929137
10013934935
10013947264
10013954222
10013963683
10013970335
10013979185
10013986815
10013999144
10014007750
10014014220
10014021483
10014027647
10014035887
10014042235
10014049254
10014055601
10014064146
10014070372
10014078550
10014084654
10014092161
10014099180
10014109800
10014116026
10014122374
10014128660
10014136534
10014142393
10014148924
10014154478
10014160887
10014168089
10014173338
10014180662
10014186582
10014192259
10014198118
10014204771
10014210569
10014217100
10014223081
10014229185
10014234983
10014241209
10014247068
10014253355
10014259336
10014265623
10014271665
10014278013
10014284299
10014291013
10014296995
10014303770
10014309629
10014315610
10014321531
10014327695
10014333555
10014339963
10014345701
10014353879
10014358884
10014366697
10014371335
10014377866
10014383176
10014388425
10014395383
10014400266
10014405942
10014412473
10014419004
10014423825
10014430539
10014435727
10014442380
10014447446
10014453733
10014460324
10014465268
10014470578
10014476377
10014483090
10014488706
10014493405
10014499631
10014504453
10014511472
10014518552
10014523984
10014529294
10014535825
10014541806
10014547971
10014554929
10014562619
10014568722
10014574643
10014587033
10014594418
10014600156
10014607480
10014613766
10014618954
10014625790
10014631039
10014637448
10014642636
10014650326
10014656674
10014665341
10014671505
10014679135
10014684872
10014691281
10014696957
10014703732
10014709469
10014715878
10014721676
10014726864
10014734188
10014739437
10014745541
10014752072
10014759701
10014766293
10014771908
10014777584
10014785153
10014791378
10014798641
10014804134
10014811398
10014816891
10014824154
10014829708
10014837338
10014842892
10014850887
10014857723
10014864742
10014870785
10014876827
10014882992
10014889828
10014897701
10014904598
10014910152
10014917904
10014922848
10014929928
10014935543
10014941158
10014949276
10014955440
10014961117
10014968807
10014975399
10014983516
10014990963
10014996395
10015004085
10015011104
10015016353
10015022396
10015029598
10015035640
10015042598
10015048641
10015055721
10015063533
10015069698
10015075618
10015084041
10015089778
10015095455
10015102840
10015107967
10015114681
10015119746
10015130733
10015138484
10015144344
10015152522
10015159541
10015169612
10015176631
10015184199
10015190791
10015204097
10015212764
10015219050
10015225154
10015231441
10015237483
10015243586
10015251338
10015258113
10015264827
10015271968
10015277522
10015284602
10015290889
10015298945
10015304621
10015310603
10015317927
10015323970
10015330439
10015336909
10015355952
10015364009
10015370600
10015374751
10015384760
10015392695
10015397761
10015405695
10015411616
10015419184
10015425227
10015432307
10015439448
10015445612
10015452692
10015458918
10015464106
10015473078
10015480341
10015486140
10015495234
10015501215
10015506953
10015515131
10015522272
10015528559
10015536249
10015542719
10015550104
10015556452
10015563349
10015572565
10015580439
10015587214
10015594355
10015603510
10015609613
10015616510
10015623896
10015632135
10015639582
10015646601
10015653192
10015661676
10015668451
10015675958
10015684686
10015691095
10015700128
10015705499
10015714533
10015720087
10015726801
10015735407
10015741144
10015748468
10015754816
10015761591
10015767511
10015775629
10015782587
10015791376
10015797540
10015804742
10015811517
10015819879
10015825189
10015830682
10015838250
10015844293
10015849664
10015855462
10015862298
10015868097
10015873468
10015879327
10015884515
10015891839
10015899957
10015905816
10015912042
10015917779
10015924493
10015930535
10015936578
10015942193
10015949334
10015954278
10015959710
10015966668
10015973077
10015978082
10015984124
10015990533
10015995965
10016000970
10016008538
10016014092
10016019585
10016026177
10016031731
10016037896
10016043206
10016048577
10016054009
10016059624
10016066460
10016071343
10016078240
10016082818
10016089532
10016094964
10016101922
10016108636
10016113824
10016120659
10016126214
10016131157
10016136468
10016143975
10016151177
10016155816
10016162652
10016168572
10016173882
10016180291
10016187676
10016194634
10016199395
10016206353
10016212151
10016217583
10016222527
10016229607
10016235405
10016242668
10016248162
10016254082
10016260918
10016265373
10016272515
10016277825
10016284966
10016291924
10016296684
10016303703
10016308769
10016316643
10016321648
10016329765
10016336296
10016342461
10016348808
10016356743
10016363823
10016370048
10016377617
10016383598
10016391228
10016399040
10016404472
10016409965
10016418266
10016425102
10016431206
10016436699
10016442802
10016450371
10016456413
10016461967
10016469658
10016474846
10016482170
10016488212
10016495842
10016501701
10016507316
10016515129
10016520744
10016527824
10016535820
10016542106
10016549003
10016555046
10016561210
10016567191
10016573783
10016580070
10016586967
10016593192
10016599540
10016605644
10016613090
10016619743
10016628104
10016633720
10016639762
10016647514
10016651969
10016659721
10016666007
10016671622
10016679984
10016685599
10016691398
10016698722
10016705009
10016710502
10016717154
10016722831
10016729850
10016737723
10016743155
10016748710
10016754874
10016762442
10016767814
10016777274
10016783866
10016789786
10016797538
10016804251
10016810111
10016816703
10016825003
10016832877
10016838492
10016844046
10016850333
10016856009
10016861807
10016869193
10016876334
10016882559
10016888480
10016895804
10016901602
10016906912
10016912405
10016919913
10016926871
10016932364
10016937369
10016944388
10016949576
10016963431
10016970145
10016977835
10016984305
10016992972
10017000235
10017006338
10017014700
10017020376
10017028494
10017034109
10017039786
10017047537
10017053152
10017061270
10017067556
10017074453
10017080740
10017086477
10017094412
10017100515
10017106680
10017112417
10017118521
10017127249
10017133535
10017139700
10017145986
10017153372
10017159719
10017166128
10017172354
10017178701
10017186208
10017191519
10017199209
10017204519
10017210806
10017217092
10017226003
10017232351
10017239858
10017246877
10017254201
10017262868
10017268362
10017275808
10017283071
10017291982
10017299550
10017305898
10017313466
10017320241
10017327627
10017334585
10017341237
10017351125
10017358510
10017365712
10017373098
10017379750
10017386037
10017392446
10017399160
10017406728
10017413320
10017418996
10017424977
10017432057
10017438161
10017445485
10017451222
10017458486
10017464345
10017470876
10017476918
10017483083
10017488759
10017495961
10017501332
10017507558
10017513051
10017520131
10017525258
10017533925
10017539296
10017545155
10017552235
10017558095
10017565175
10017570546
10017576588
10017583729
10017589223
10017595692
10017604481
10017613087
10017618458
10017625660
10017630787
10017636708
10017644154
10017653553
10017660328
10017666981
10017672108
10017677113
10017684010
10017689747
10017694752
10017700856
10017707875
10017713185
10017719166
10017724537
10017730824
10017737782
10017743458
10017748707
10017754749
10017760182
10017766651
10017771656
10017778187
10017783070
10017788380
10017795033
10017800037
10017805653
10017810780
10017816273
10017822926
10017827869
10017834339
10017838917
10017845570
10017850574
10017855640
10017862842
10017869495
10017876026
10017881458
10017886646
10017892322
10017897571
10017905689
10017911121
10017917774
10017922962
10017930164
10017936939
10017944019
10017950123
10017957447
10017962818
10017968921
10017974659
10017981189
10017988880
10017994678
10018000049
10018008960
10018014514
10018020618
10018027210
10018033191
10018041065
10018048633
10018053577
10018061145
10018066699
10018072254
10018078601
10018087451
10018093494
10018100818
10018106738
10018112048
10018119312
10018124438
10018132678
10018138904
10018146106
10018151294
10018158801
10018165576
10018172473
10018179675
10018187793
10018197680
10018202929
10018211352
10018217334
10018223803
10018230456
10018238940
10018246753
10018252429
10018258166
10018265612
10018271777
10018276599
10018283313
10018293261
10018299548
10018306262
10018312487
10018319445
10018325610
10018332568
10018338671
10018345019
10018351122
10018356127
10018363391
10018368456
10018375659
10018380663
10018388293
10018394640
10018400378
10018406237
10018412829
10018418261
10018423327
10018430407
10018435839
10018443285
10018449999
10018455614
10018461230
10018466967
10018473437
10018479113
10018486376
10018492357
10018498888
10018504748
10018511278
10018517016
10018522814
10018528673
10018537096
10018543627
10018549303
10018555651
10018562487
10018568712
10018575304
10018583178
10018589464
10018597277
10018602892
10018608568
10018616075
10018621324
10018627733
10018634081
10018642076
10018646898
10018654161
10018659593
10018665025
10018672960
10018679308
10018687120
10018694200
10018701891
10018706041
10018714952
10018721666
10018727953
10018733995
10018740770
10018748582
10018755296
10018762010
10018770250
10018776964
10018783311
10018788743
10018797838
10018805223
10018814561
10018823228
10018832750
10018841050
10018848375
10018859178
10018865586
10018878587
10018885545
10018893357
10018900071
10018906419
10018915330
10018922288
10018928208
10018935777
10018941880
10018948777
10018956590
10018963365
10018969529
10018976731
10018983140
10018989671
10018999558
10019004563
10019013841
10019019517
10019026902
10019035325
10019043626
10019049119
10019057481
10019062791
10019070725
10019074998
10019082749
10019089707
10019095078
10019100510
10019107895
10019113633
10019120469
10019124924
10019132615
10019138962
10019144455
10019152146
10019157700
10019164170
10019169663
10019176560
10019184555
10019190537
10019196152
10019201401
10019209214
10019215134
10019220200
10019227829
10019233811
10019241013
10019247605
10019253830
10019259506
10019265244
10019271225
10019279099
10019286057
10019292282
10019298203
10019304001
10019310532
10019314987
10019320480
10019328476
10019333298
10019339951
10019345627
10019350815
10019357040
10019364059
10019368759
10019375473
10019380783
10019386459
10019392990
10019398361
10019403793
10019410202
10019415390
10019420883
10019429062
10019434311
10019440658
10019447311
10019454147
10019460128
10019466171
10019473556
10019479354
10019485092
10019491684
10019497299
10019505600
10019510910
10019516036
10019521163
10019529037
10019535507
10019541183
10019549056
10019554611
10019560287
10019567428
10019572067
10019579147
10019583968
10019591171
10019596420
10019603439
10019608871
10019616073
10019621261
10019626388
10019632735
10019640487
10019648238
10019653915
10019660201
10019667708
10019673995
10019680160
10019686385
10019693770
10019699813
10019706283
10019712508
10019718795
10019725142
10019732100
10019738265
10019745711
10019752059
10019757186
10019764998
10019771529
10019777144
10019782820
10019790572
10019797286
10019802840
10019809493
10019815108
10019820784
10019828414
10019833357
10019840987
10019845809
10019853316
10019859175
10019867720
10019873946
10019879195
10019884749
10019893965
10019900191
10019907698
10019913863
10019920088
10019925948
10019931197
10019939009
10019944258
10019951216
10019956526
10019964216
10019970198
10019977400
10019983198
10019989973
10019996077
10020003035
10020008955
10020015852
10020021467
10020027510
10020034956
10020040937
10020046736
10020056807
10020060469
10020069258
10020077070
10020083723
10020090010
10020098860
10020105390
10020112287
10020119245
10020125471
10020132490
10020138655
10020145124
10020152754
10020158003
10020165998
10020170942
10020178816
10020185407
10020191023
10020197248
10020204450
10020210676
10020216169
10020222883
10020228437
10020235090
10020240888
10020248823
10020254377
10020260663
10020268171
10020275312
10020281537
10020289289
10020295759
10020302472
10020310346
10020316755
10020323041
10020330243
10020338361
10020345319
10020351728
10020359479
10020365705
10020373395
10020379560
10020386640
10020395185
10020401227
10020407575
10020414533
10020423932
10020428754
10020436383
10020446027
10020452924
10020460309
10020467267
10020475934
10020484662
10020490216
10020497479
10020504010
10020513348
10020520184
10020527814
10020534955
10020542462
10020549237
10020556561
10020564618
10020572125
10020578473
10020586041
10020593426
10020600995
10020606854
10020616437
10020622967
10020629437
10020638165
10020644818
10020651593
10020659466
10020666241
10020672100
10020681317
10020687359
10020694683
10020702496
10020710003
10020717694
10020726971
10020732464
10020741558
10020748882
10020755047
10020761150
10020768902
10020778179
10020784405
10020791241
10020797100
10020805279
10020811443
10020817791
10020826519
10020832561
10020838970
10020844891
10020852154
10020858074
10020864239
10020870159
10020876934
10020883220
10020889873
10020897991
10020903911
10020909343
10020914837
10020922405
10020927959
10020933391
10020939861
10020946697
10020952312
10020957561
10020964641
10020970256
10020975933
10020982463
10020988018
10020994731
10021000225
10021004619
10021011882
10021017620
10021024394
10021030376
10021035869
10021041362
10021048198
10021053813
10021059367
10021064189
10021071758
10021076762
10021083537
10021088237
10021095256
10021100200
10021108012
10021114787
10021120586
10021126262
10021131694
10021138408
10021142436
10021149211
10021155376
10021160136
10021166118
10021170695
10021176127
10021182475
10021186931
10021194194
10021200847
10021206096
10021211955
10021217936
10021223246
10021229350
10021238444
10021244792
10021252482
10021260356
10021264750
10021272319
10021278056
10021283061
10021290019
10021297038
10021302287
10021308268
10021313456
10021318644
10021325297
10021332804
10021340190
10021358561
10021365092
10021373454
10021380351
10021389384
10021396464
10021405375
10021411356
10021418864
10021424601
10021431681
10021439249
10021445414
10021450358
10021456522
10021462076
10021469095
10021476725
10021482157
10021490336
10021496500
10021502237
10021508463
10021513285
10021520975
10021528666
10021534769
10021541361
10021547647
10021555277
10021561563
10021567606
10021573832
10021580362
10021587686
10021593790
10021601480
10021607340
10021614420
10021620401
10021626200
10021632913
10021638651
10021646829
10021652567
10021660684
10021665689
10021671732
10021679483
10021686990
10021692789
10021698892
10021705606
10021711893
10021718545
10021726968
10021734415
10021740274
10021748270
10021753946
10021759317
10021767129
10021774270
10021780374
10021786905
10021792581
10021799844
10021805581
10021811807
10021819375
10021825174
10021833047
10021839151
10021846780
10021853250
10021859658
10021865945
10021871316
10021879129
10021885354
10021893167
10021898843
10021904946
10021911233
10021919168
10021925576
10021931985
10021940713
10021946633
10021953164
10021960183
10021966653
10021974038
10021981545
10021989419
10021999368
10022004617
10022014138
10022020547
10022028054
10022034157
10022043252
10022049660
10022057168
10022063576
10022070840
10022076943
10022082680
10022090310
10022096169
10022102944
10022108498
10022115273
10022122597
10022130776
10022136269
10022142739
10022150917
10022157814
10022165444
10022172280
10022178688
10022185463
10022191506
10022198342
10022206215
10022213051
10022219704
10022226601
10022233986
10022240822
10022248329
10022253029
10022259926
10022270546
10022278114
10022282875
10022289528
10022297401
10022306068
10022313820
10022320778
10022326820
10022336464
10022344520
10022351601
10022358070
10022365639
10022373634
10022381019
10022388405
10022395668
10022402260
10022409706
10022416542
10022424049
10022431190
10022438758
10022445533
10022451942
10022458595
10022466468
10022475074
10022481422
10022487464
10022494300
10022500221
10022509437
10022515541
10022521888
10022527076
10022534583
10022539771
10022545204
10022552833
10022558692
10022564735
10022572303
10022577430
10022583534
10022590369
10022596351
10022602760
10022609656
10022616737
10022624305
10022629127
10022636756
10022642432
10022650306
10022656165
10022661475
10022668616
10022676551
10022683265
10022689490
10022696631
10022704444
10022710853
10022721167
10022725745
10022735083
10022740821
10022746436
10022753333
10022760047
10022766150
10022772620
10022778601
10022783667
10022789283
10022795935
10022800696
10022807166
10022812598
10022818762
10022825659
10022830359
10022837256
10022843298
10022849524
10022854956
10022861365
10022868262
10022873633
10022879187
10022884924
10022891455
10022897437
10022902991
10022909888
10022914831
10022921606
10022926611
10022932288
10022939184
10022944922
10022952734
10022958472
10022964270
10022969946
10022977881
10022983374
10022991064
10022996374
10023002051
10023009131
10023014685
10023022924
10023027929
10023033239
10023039831
10023044714
10023051977
10023057959
10023065893
10023071936
10023077368
10023084814
10023089941
10023097570
10023103369
10023110876
10023118566
10023125097
10023131017
10023137609
10023144018
10023149206
10023157140
10023163549
10023169286
10023175878
10023183263
10023188879
10023195898
10023202184
10023210241
10023216466
10023222753
10023229040
10023237218
10023243566
10023249547
10023255773
10023263097
10023271947
10023278295
10023285131
10023293310
10023299596
10023305761
10023314550
10023321752
10023327306
10023334142
10023339635
10023346105
10023353856
10023359655
10023366063
10023372350
10023379796
10023385655
10023391332
10023397191
10023402440
10023409642
10023416173
10023422154
10023428685
10023436498
10023443273
10023448827
10023454991
10023463292
10023469273
10023476048
10023482335
10023489598
10023495885
10023502965
10023510960
10023516331
10023524022
10023530247
10023535985
10023542088
10023549901
10023556248
10023561925
10023568211
10023575902
10023581639
10023587376
10023594151
10023602391
10023608128
10023616063
10023621678
10023627232
10023634800
10023642491
10023648777
10023656224
10023663182
10023669895
10023676915
10023682347
10023689366
10023698277
10023705174
10023711216
10023717381
10023726109
10023732029
10023739903
10023746800
10023752354
10023759556
10023765659
10023773472
10023779881
10023787266
10023793674
10023800999
10023808811
10023815464
10023822300
10023828709
10023838291
10023845737
10023852512
10023859470
10023868442
10023874790
10023881565
10023888096
10023897739
10023905246
10023911838
10023918918
10023925083
10023933384
10023944065
10023952365
10023959446
10023972202
10023978000
10023987400
10023994541
10024000766
10024006931
10024015964
10024023715
10024032016
10024038120
10024044284
10024052280
10024058566
10024065341
10024071628
10024079807
10024085971
10024092319
10024099582
10024106296
10024114719
10024123202
10024130710
10024139010
10024144626
10024153598
10024159030
10024167331
10024174899
10024182284
10024189792
10024196200
10024203647
10024209140
10024216342
10024222567
10024230380
10024236117
10024242221
10024251986
10024257968
10024263888
10024269931
10024277011
10024282992
10024289523
10024295382
10024302279
10024308200
10024313876
10024320345
10024327059
10024333224
10024339449
10024345370
10024352145
10024358126
10024363741
10024371188
10024375948
10024383395
10024388094
10024395663
10024400729
10024408175
10024414522
10024419710
10024426974
10024432284
10024438082
10024444979
10024452547
10024456881
10024464022
10024469393
10024475863
10024481112
10024486483
10024494173
10024500216
10024505465
10024510225
10024516756
10024523043
10024530184
10024536837
10024541231
10024547762
10024554171
10024558992
10024563875
10024571199
10024577120
10024584627
10024590608
10024597078
10024603609
10024610567
10024616792
10024623506
10024630586
10024635164
10024642000
10024648287
10024653230
10024658846
10024665682
10024670869
10024676118
10024684724
10024690279
10024696077
10024702486
10024708101
10024714510
10024721773
10024726778
10024732881
10024741304
10024746980
10024751741
10024759004
10024766450
10024771577
10024779573
10024784578
10024790315
10024797212
10024803438
10024809968
10024817903
10024825044
10024831269
10024837739
10024843965
10024849580
10024857331
10024862275
10024870088
10024875642
10024883760
10024888154
10024895906
10024902070
10024907807
10024915803
10024921662
10024928010
10024935273
10024941621
10024947297
10024953584
10024961152
10024967011
10024974641
10024980134
10024987641
10024993073
10024998750
10025004914
10025012238
10025020051
10025026765
10025032990
10025038178
10025045930
10025050995
10025058686
10025065461
10025070954
10025077729
10025083222
10025089692
10025097260
10025103363
10025110566
10025116486
10025122895
10025130585
10025134919
10025142609
10025148712
10025154694
10025161408
10025169403
10025175446
10025183197
10025189911
10025196137
10025204437
10025213410
10025219208
10025229035
10025234589
10025241242
10025247772
10025253998
10025263336
10025269501
10025275848
10025282074
10025289947
10025295685
10025301422
10025309418
10025315948
10025323151
10025328583
10025337005
10025343109
10025350006
10025356415
10025361664
10025369415
10025374725
10025380218
10025388275
10025394378
10025399749
10025408477
10025414154
10025421844
10025427581
10025433685
10025440399
10025446563
10025453277
10025459625
10025466888
10025473114
10025480377
10025487030
10025494964
10025501190
10025508026
10025516754
10025523101
10025531097
10025537078
10025543365
10025550018
10025558440
10025565337
10025571746
10025577728
10025586272
10025592071
10025598907
10025605193
10025612090
10025620086
10025626861
10025635406
10025642303
10025648223
10025657500
10025664153
10025671416
10025677215
10025686492
10025693816
10025700530
10025709746
10025716155
10025722564
10025729155
10025738189
10025745696
10025752532
10025759246
10025766143
10025775237
10025782073
10025788909
10025796416
10025805205
10025811003
10025817778
10025825957
10025834563
10025841948
10025848784
10025855864
10025865508
10025879179
10025887114
10025894682
10025900969
10025909148
10025916960
10025924834
10025931547
10025940031
10025944853
10025952666
10025957304
10025964750
10025969389
10025976835
10025983366
10025990324
10025995756
10026002653
10026007841
10026013151
10026020292
10026026091
10026032133
10026039030
10026044706
10026051908
10026057096
10026062467
10026070768
10026075468
10026081327
10026089018
10026094999
10026100309
10026105558
10026113004
10026119169
10026126981
10026132780
10026138395
10026144315
10026151334
10026157377
10026162992
10026168974
10026174589
10026181913
10026188200
10026194486
10026199979
10026204984
10026210660
10026218107
10026223722
10026230009
10026235502
10026240690
10026247281
10026252714
10026258024
10026266263
10026272977
10026278226
10026282865
10026289396
10026294706
10026299711
10026307462
10026313138
10026319730
10026324247
10026330777
10026335477
10026342862
10026349637
10026354276
10026360807
10026365628
10026372830
10026378018
10026383267
10026390836
10026397305
10026402738
10026408963
10026414395
10026420499
10026428006
10026435513
10026440640
10026447720
10026453458
10026460233
10026466824
10026473355
10026480862
10026487088
10026492154
10026500455
10026506070
10026514432
10026519375
10026527249
10026534024
10026540188
10026547268
10026554532
10026561917
10026566861
10026573147
10026580899
10026586270
10026593777
10026599942
10026604824
10026613858
10026619229
10026625271
10026632534
10026638760
10026645291
10026651638
10026657742
10026663967
10026671353
10026677517
10026684780
10026691006
10026697476
10026703640
10026710354
10026716702
10026723538
10026731533
10026738491
10026744045
10026750271
10026757412
10026763638
10026771328
10026776760
10026782436
10026788418
10026795620
10026801113
10026808987
10026814419
10026821987
10026828213
10026835049
10026841091
10026846706
10026852871
10026860195
10026866359
10026872036
10026879726
10026886379
10026892605
10026900295
10026906582
10026911831
10026919582
10026924526
10026932460
10026938320
10026945522
10026951625
10026959072
10026963466
10026971034
10026977199
10026982936
10026992031
10026998134
10027004421
10027011440
10027017360
10027023464
10027029445
10027036037
10027043727
10027049342
10027055446
10027062099
10027070338
10027076076
10027082240
10027094630
10027102443
10027111293
10027118007
10027123866
10027131557
10027137965
10027148036
10027154262
10027160426
10027167567
10027173732
10027180812
10027186976
10027193446
10027200282
10027208461
10027214747
10027221827
10027227931
10027234523
10027240992
10027248927
10027255702
10027260951
10027267237
10027274989
10027281092
10027286769
10027292933
10027300501
10027307276
10027313136
10027321070
10027326380
10027332545
10027339076
10027345606
10027352869
10027361109
10027367640
10027373499
10027378870
10027386805
10027392603
10027398890
10027405848
10027413416
10027420130
10027428736
10027434717
10027441614
10027448939
10027455774
10027462610
10027469385
10027475672
10027482447
10027490076
10027497034
10027503138
10027509302
10027519068
10027523462
10027531519
10027537622
10027545679
10027551660
10027557764
10027565027
10027573450
10027579676
10027585840
10027592188
10027599146
10027605249
10027611780
10027619470
10027625818
10027632349
10027638391
10027644434
10027650293
10027655359
10027662256
10027666650
10027673730
10027678430
10027683923
10027688928
10027695764
10027700647
10027707483
10027712182
10027719568
10027725854
10027731286
10027738305
10027745630
10027754846
10027761010
10027767419
10027776208
10027783716
10027790674
10027799157
10027805932
10027811670
10027817590
10027825158
10027831140
10027837304
10027845849
10027851525
10027858239
10027863916
10027868981
10027876184
10027881127
10027886498
10027891442
10027899194
10027903893
10027910912
10027917260
10027922814
10027928430
10027935449
10027940881
10027946496
10027953149
10027958581
10027964318
10027971093
10027975671
10027982384
10027986962
10027993798
10027999291
10028006127
10028011315
10028017907
10028022729
10028029381
10028034752
10028040429
10028047143
10028053978
10028059228
10028065880
10028071068
10028077355
10028082604
10028088768
10028096947
10028104271
10028110009
10028115502
10028120995
10028128136
10028133263
10028140831
10028148156
10028154259
10028159752
10028166100
10028171105
10028176903
10028184349
10028191429
10028198143
10028203819
10028210777
10028216148
10028222252
10028228111
10028235130
10028243431
10028249290
10028255943
10028262047
10028269066
10028275230
10028281395
10028289268
10028295433
10028300865
10028308555
10028314049
10028321556
10028326561
10028339134
10028347801
10028353721
10028360557
10028366661
10028375633
10028387779
10028393943
10028400047
10028406944
10028413047
10028418602
10028424705
10028431053
10028438499
10028444114
10028451805
10028458213
10028463890
10028470054
10028477867
10028483482
10028491172
10028496726
10028502342
10028508323
10028516013
10028521507
10028528770
10028534202
10028541709
10028547996
10028554710
10028561607
10028568809
10028574973
10028581382
10028587791
10028594443
10028600791
10028607444
10028613792
10028621116
10028627463
10028635215
10028641196
10028647605
10028653830
10028661216
10028666831
10028673911
10028679709
10028685996
10028694541
10028700461
10028706199
10028712363
10028718344
10028726279
10028732993
10028738974
10028744651
10028752280
10028757834
10028763816
10028770713
10028780356
10028787009
10028793112
10028801535
10028807822
10028814291
10028821372
10028828085
10028836508
10028842673
10028850974
10028856894
10028862631
10028868613
10028875937
10028885580
10028892294
10028899435
10028905966
10028913351
10028920309
10028925863
10028934653
10028941794
10028948324
10028954550
10028960714
10028969320
10028976889
10028985373
10028995260
10029006124
10029012533
10029020468
10029029623
10029037558
10029047872
10029054830
10029062094
10029070577
10029077047
10029084066
10029090536
10029099081
10029105001
10029111837
10029119039
10029125936
10029133382
10029140279
10029146566
10029153280
10029160543
10029167379
10029175558
10029182455
10029188741
10029195699
10029202535
10029209981
10029217122
10029224752
10029232747
10029240133
10029246480
10029253988
10029262716
10029267293
10029276937
10029281575
10029292196
10029298909
10029305806
10029313131
10029319173
10029325765
10029333272
10029339986
10029345784
10029352803
10029361348
10029366658
10029372151
10029378987
10029384480
10029391194
10029397176
10029405538
10029412251
10029418233
10029424947
10029430745
10029436421
10029442342
10029448262
10029453999
10029460713
10029466450
10029472737
10029477986
10029484090
10029491414
10029497029
10029503682
10029509358
10029515767
10029521626
10029526936
10029534443
10029540486
10029547322
10029552388
10029559895
10029565571
10029571492
10029576741
10029584004
10029589131
10029594746
10029600972
10029608052
10029613911
10029619282
10029632038
10029637287
10029642842
10029651020
10029657124
10029663471
10029669697
10029678791
10029683857
10029692341
10029697956
10029704365
10029709797
10029714863
10029721394
10029728169
10029733051
10029737873
10029744221
10029750263
10029757954
10029764729
10029769978
10029777363
10029782551
10029788166
10029794697
10029800251
10029807758
10029813007
10029820209
10029825519
10029831928
10029837177
10029843464
10029850300
10029855427
10029862446
10029867511
10029874469
10029881672
10029887165
10029893024
10029899616
10029907123
10029913715
10029921955
10029927631
10029934955
10029941364
10029947772
10029955219
10029961688
10029967426
10029974384
10029979999
10029985919
10029994647
10030000995
10030007770
10030013690
10030020099
10030026202
10030032367
10030040363
10030046527
10030052203
10030058734
10030066852
10030072772
10030078326
10030084674
10030091693
10030099139
10030104510
10030111957
10030118304
10030123919
10030129596
10030137286
10030145099
10030152423
10030158526
10030164447
10030172015
10030178546
10030184588
10030193011
10030199847
10030206317
10030212725
10030219805
10030227618
10030239031
10030245257
10030253558
10030261126
10030273577
10030280596
10030286822
10030292864
10030300311
10030307635
10030313677
10030321734
10030327593
10030333819
10030340777
10030347002
10030353289
10030359637
10030367571
10030373858
10030379534
10030385699
10030393511
10030399798
10030406695
10030413042
10030419390
10030425799
10030431719
10030439593
10030446428
10030454180
10030459185
10030467058
10030473467
10030479082
10030486467
10030492571
10030499041
10030504534
10030510759
10030518084
10030523638
10030531145
10030537798
10030547319
10030553972
10030557756
10030566240
10030575395
10030582598
10030590227
10030597551
10030603960
10030611040
10030618425
10030625261
10030631120
10030637834
10030644365
10030651689
10030658769
10030666765
10030672502
10030682085
10030687883
10030700517
10030707414
10030715104
10030724077
10030731157
10030738725
10030746110
10030753496
10030762162
10030769120
10030776811
10030785417
10030791581
10030798783
10030805558
10030812272
10030819291
10030826615
10030835160
10030842118
10030849931
10030856523
10030865922
10030872087
10030878983
10030885880
10030903031
10030909989
10030919999
10030928300
10030934708
10030942338
10030949906
10030965104
10030971207
10030978043
10030984330
10030992814
10030998917
10031005814
10031014359
10031020402
10031026810
10031032914
10031039017
10031044938
10031050248
10031057633
10031064164
10031071061
10031076371
10031083329
10031089859
10031095353
10031101944
10031107499
10031113968
10031121109
10031126358
10031133621
10031139481
10031145706
10031151566
10031158097
10031163956
10031169205
10031176712
10031182205
10031188126
10031194718
10031200577
10031207596
10031213638
10031220718
10031226822
10031232376
10031239944
10031245010
10031251114
10031258194
10031265518
10031270950
10031277542
10031282791
10031287552
10031294937
10031301956
10031308792
10031313186
10031320022
10031326004
10031330704
10031336319
10031344070
10031350601
10031356399
10031362075
10031368362
10031373245
10031379898
10031386123
10031392776
10031397293
10031403823
10031409195
10031414138
10031420181
10031427566
10031433059
10031438552
10031445022
10031450637
10031455581
10031462051
10031468887
10031475906
10031482192
10031487624
10031492690
10031500259
10031507034
10031513564
10031520339
10031527724
10031533096
10031540542
10031546523
10031555068
10031560805
10031567214
10031573135
10031580215
10031585830
10031591689
10031597182
10031602553
10031610183
10031616591
10031624343
10031631179
10031637771
10031643752
10031651015
10031657790
10031663649
10031669936
10031678908
10031685134
10031690444
10031698134
10031704055
10031710158
10031716384
10031724013
10031728957
10031736830
10031743239
10031749404
10031755629
10031761733
10031767348
10031775160
10031781142
10031787489
10031793410
10031799574
10031805922
10031811659
10031820021
10031825514
10031831679
10031837050
10031843214
10031849928
10031855360
10031860915
10031869459
10031875319
10031882704
10031887709
10031894850
10031900465
10031907850
10031915724
10031921827
10031928847
10031933851
10031940138
10031945326
10031952467
10031958510
10031964613
10031972487
10031978285
10031984388
10031990126
10031995314
10032002577
10032009413
10032015394
10032022596
10032028700
10032037184
10032043836
10032049879
10032056471
10032063856
10032071058
10032077528
10032083387
10032091444
10032097425
10032104078
10032110670
10032122450
10032129591
10032136366
10032142774
10032149915
10032162977
10032169813
10032176099
10032183179
10032189588
10032195386
10032203321
10032210218
10032215772
10032221387
10032229139
10032235181
10032240735
10032248182
10032253797
10032260083
10032267286
10032273084
10032278638
10032285108
10032292798
10032300000
10032306287
10032313184
10032319409
10032327588
10032333753
10032340894
10032347180
10032354993
10032361279
10032368543
10032374768
10032383008
10032389234
10032397046
10032403333
10032409680
10032416577
10032425244
10032431592
10032438672
10032447034
10032452039
10032461316
10032466504
10032476147
10032481274
10032490369
10032497143
10032503613
10032511792
10032518323
10032525586
10032532483
10032542370
10032548535
10032555676
10032562573
10032569775
10032578320
10032585461
10032591198
10032600537
10032607678
10032615002
10032622753
10032630017
10032635510
10032644665
10032652172
10032661267
10032668469
10032675060
10032682202
10032688488
10032695812
10032702282
10032711193
10032717236
10032723339
10032729504
10032735180
10032742321
10032748180
10032755444
10032761059
10032767651
10032772716
10032778759
10032786754
10032793529
10032801464
10032807934
10032813732
10032820080
10032827404
10032833690
10032840099
10032847545
10032853344
10032860973
10032865612
10032872997
10032877330
10032884716
10032889965
10032897655
10032903881
10032909313
10032915355
10032922252
10032927928
10032932628
10032939647
10032946178
10032951366
10032957530
10032962963
10032969737
10032975292
10032980419
10032987377
10032991954
10032998607
10033004222
10033011058
10033016002
10033023204
10033028514
10033034557
10033040111
10033045848
10033051402
10033058116
10033063670
10033068797
10033075694
10033080882
10033087474
10033093272
10033099254
10033106151
10033111033
10033117198
10033122142
10033130259
10033134593
10033141551
10033147044
10033153087
10033159739
10033165477
10033172068
10033179210
10033183604
10033190806
10033195750
10033202830
10033209727
10033215159
10033221018
10033228831
10033234568
10033240183
10033247203
10033252024
10033259471
10033265635
10033271555
10033278025
10033285594
10033291575
10033298533
10033304392
10033312266
10033318369
10033325632
10033331004
10033336619
10033344126
10033349619
10033357127
10033365000
10033374277
10033380320
10033387888
10033394053
10033401438
10033407725
10033419321
10033427073
10033432688
10033438486
10033446421
10033453074
10033458689
10033470346
10033477060
10033483347
10033489634
10033495676
10033502512
10033509897
10033516306
10033521921
10033528696
10033536203
10033541635
10033549875
10033556040
10033562509
10033568552
10033574594
10033582468
10033588449
10033594736
10033601694
10033609628
10033614816
10033622202
10033628915
10033634531
10033641183
10033648935
10033654367
10033662118
10033667490
10033674753
10033680246
10033687753
10033694040
10033701425
10033707651
10033714181
10033720285
10033727670
10033735421
10033742013
10033748178
10033755136
10033761178
10033769296
10033775521
10033783151
10033789498
10033795236
10033801400
10033808236
10033816293
10033824349
10033830148
10033836434
10033841867
10033850961
10033857186
10033864205
10033870492
10033876534
10033883187
10033889596
10033895272
10033904244
10033909432
10033918465
10033924752
10033931466
10033937569
10033944405
10033951974
10033958810
10033966012
10033972787
10033982369
10033990670
10033996590
10034002877
10034009469
10034017891
10034025033
10034032235
10034040902
10034047860
10034055245
10034063851
10034070382
10034077584
10034085945
10034093392
10034100045
10034105843
10034114205
10034121407
10034128243
10034134590
10034141365
10034149544
10034156441
10034162850
10034169685
10034175728
10034181709
10034190559
10034197273
10034203316
10034209358
10034218697
10034225471
10034231819
10034238228
10034246223
10034252205
10034258430
10034265755
10034271858
10034278450
10034287117
10034294136
10034300789
10034307319
10034317024
10034325813
10034332466
10034340156
10034346870
10034355415
10034362129
10034368782
10034376350
10034382820
10034390205
10034398262
10034405281
10034411201
10034418342
10034425849
10034432014
10034440193
10034446296
10034452339
10034458686
10034465949
10034473579
10034478278
10034485786
10034492927
10034498420
10034504157
10034511359
10034516792
10034523994
10034529304
10034534858
10034543342
10034549018
10034554389
10034559882
10034568305
10034573432
10034578742
10034587287
10034593390
10034600409
10034606330
10034611518
10034617560
10034624335
10034630378
10034637824
10034645209
10034650885
10034656989
10034663947
10034669867
10034675299
10034680854
10034687262
10034692145
10034699042
10034705023
10034711920
10034720099
10034725592
10034732184
10034738593
10034746955
10034754218
10034759772
10034765631
10034771063
10034777716
10034784186
10034790595
10034795783
10034802557
10034807440
10034812567
10034817450
10034826117
10034831366
10034837103
10034843146
10034848517
10034854254
10034861151
10034866583
10034873846
10034879645
10034886175
10034892096
10034897406
10034902899
10034909796
10034915228
10034920355
10034929083
10034934149
10034941290
10034946356
10034951971
10034959295
10034966436
10034972723
10034978704
10034984564
10034990362
10034996771
10035004339
10035010504
10035016058
10035023809
10035029363
10035035101
10035042303
10035047735
10035055792
10035061224
10035069158
10035075445
10035081182
10035089056
10035094915
10035101141
10035107977
10035114141
10035120794
10035127019
10035133062
10035139165
10035145452
10035151495
10035158269
10035166021
10035171941
10035178106
10035184759
10035190862
10035197637
10035206243
10035213689
10035220342
10035226384
10035232122
10035239080
10035246831
10035252446
10035260930
10035267034
10035273931
10035280095
10035286077
10035292241
10035299443
10035307073
10035316167
10035324163
10035330693
10035337224
10035346990
10035353948
10035360478
10035367253
10035373357
10035380559
10035386907
10035392400
10035400029
10035406377
10035411992
10035419682
10035425236
10035432194
10035440007
10035445500
10035451054
10035457158
10035462956
10035472600
10035479008
10035485112
10035490361
10035495732
10035501347
10035510685
10035517277
10035523503
10035529057
10035535283
10035542180
10035548466
10035554387
10035560551
10035567936
10035574101
10035580937
10035587040
10035594242
10035600346
10035605839
10035612126
10035619145
10035626957
10035634281
10035642643
10035648014
10035654972
10035664005
10035670963
10035681095
10035686955
10035692631
10035700748
10035706120
10035711979
10035718754
10035725040
10035731693
10035737980
10035745487
10035751285
10035758366
10035765995
10035771427
10035778019
10035785404
10035794193
10035800663
10035805851
10035812504
10035820438
10035826603
10035833194
10035841190
10035853336
10035861698
10035872989
10035881656
10035891788
10035902103
10035909610
10035916995
10035923343
10035929569
10035935611
10035942630
10035949954
10035957462
10035965274
10035971866
10035980045
10035986453
10035993472
10036000308
10036007632
10036017337
10036024905
10036031924
10036038455
10036043338
10036050418
10036056155
10036063357
10036068728
10036077640
10036084048
10036090152
10036097476
10036103518
10036109927
10036115786
10036122073
10036127993
10036133792
10036139712
10036145999
10036151858
10036159182
10036164920
10036171511
10036177554
10036183902
10036189883
10036195498
10036203189
10036208499
10036216067
10036220950
10036228457
10036233401
10036240969
10036246768
10036252322
10036259890
10036265261
10036272463
10036277956
10036285037
10036290591
10036297244
10036302920
10036311404
10036316409
10036323794
10036328860
10036334841
10036341372
10036347109
10036352602
10036359011
10036366274
10036371279
10036376894
10036383303
10036389040
10036394228
10036402407
10036407229
10036414065
10036420107
10036425661
10036430788
10036439089
10036444704
10036449648
10036456057
10036461000
10036467226
10036473879
10036479128
10036486391
10036493288
10036499330
10036504030
10036509035
10036515993
10036521364
10036528749
10036534120
10036539858
10036546327
10036551821
10036556703
10036565431
10036572878
10036581545
10036587038
10036595094
10036601381
10036608095
10036614687
10036621217
10036626894
10036633974
10036639711
10036645265
10036651063
10036656618
10036663759
10036669069
10036676149
10036682008
10036688661
10036694764
10036700624
10036706788
10036715516
10036721620
10036727968
10036734437
10036741273
10036747499
10036754029
10036760255
10036767335
10036773500
10036779298
10036787171
10036792787
10036799012
10036804933
10036812806
10036818788
10036826600
10036831910
10036839662
10036845765
10036851380
10036857057
10036864930
10036870789
10036876222
10036884034
10036889588
10036895264
10036902467
10036908265
10036917542
10036923829
10036930665
10036936951
10036943604
10036949891
10036956055
10036962403
10036969971
10036976136
10036982117
10036988404
10036995850
10037001893
10037007203
10037015015
10037021058
10037027344
10037033326
10037041260
10037047608
10037053284
10037060608
10037066285
10037073548
10037079163
10037086243
10037091858
10037098999
10037104615
10037110352
10037116394
10037125977
10037132935
10037138794
10037144776
10037150940
10037158264
10037164429
10037172730
10037178284
10037183777
10037192566
10037198547
10037206665
10037212585
10037219421
10037229614
10037240723
10037246094
10037253113
10037260986
10037267212
10037272278
10037280762
10037287170
10037293457
10037300598
10037306823
10037312927
10037319275
10037326355
10037332580
10037339050
10037345398
10037351928
10037359680
10037365539
10037371704
10037379211
10037385620
10037392456
10037398620
10037405578
10037414245
10037420959
10037427001
10037436035
10037442016
10037448058
10037455993
10037461913
10037469909
10037476012
10037484863
10037491576
10037499267
10037506103
10037511535
10037517394
10037526794
10037533752
10037539672
10037545837
10037552001
10037559630
10037568236
10037575805
10037581786
10037589477
10037596312
10037603759
10037610473
10037619445
10037626220
10037633605
10037640441
10037647033
10037654479
10037662658
10037670043
10037677001
10037684447
10037693663
10037699279
10037707579
10037714903
10037721800
10037729125
10037736632
10037744200
10037751036
10037758299
10037764220
10037771849
10037778563
10037785826
10037794554
10037802061
10037808836
10037814574
10037823485
10037828123
10037836912
10037843809
10037849303
10037855528
10037862364
10037869749
10037875426
10037882200
10037893919
10037901610
10037908079
10037914305
10037921446
10037929503
10037936583
10037944395
10037951841
10037957090
10037964598
10037969847
10037977354
10037982054
10037989866
10037997129
10038005064
10038010862
10038017027
10038022947
10038028868
10038034788
10038041929
10038047849
10038054319
10038060301
10038065916
10038071348
10038078550
10038083860
10038089109
10038096006
10038100645
10038107420
10038112546
10038119504
10038124631
10038131834
10038136655
10038143125
10038149717
10038154966
10038161802
10038166685
10038173581
10038179868
10038184751
10038190854
10038195798
10038203245
10038207700
10038215024
10038220517
10038227353
10038233518
10038238889
10038244016
10038249265
10038255490
10038262265
10038267209
10038273984
10038278867
10038284299
10038291623
10038296689
10038302365
10038307370
10038314878
10038320127
10038326718
10038332150
10038337399
10038343625
10038350888
10038356259
10038363644
10038370175
10038376523
10038381772
10038387326
10038394528
10038400510
10038408993
10038415219
10038422421
10038428097
10038436093
10038445126
10038452878
10038459042
10038466488
10038474362
10038480771
10038488339
10038494381
10038502133
10038512204
10038520382
10038525753
10038533688
10038539608
10038545895
10038554501
10038560238
10038567990
10038575192
10038581417
10038588070
10038594296
10038600643
10038608395
10038614193
10038620358
10038627926
10038634030
10038639950
10038646176
10038654781
10038660946
10038667233
10038673580
10038680355
10038686703
10038693050
10038700924
10038707516
10038713253
10038719418
10038725704
10038732723
10038738277
10038745357
10038751095
10038757870
10038765926
10038771847
10038777584
10038783809
10038789425
10038798153
10038804867
10038810360
10038817684
10038823055
10038831661
10038837825
10038843135
10038849239
10038856441
10038862545
10038869075
10038875240
10038881771
10038887935
10038895626
10038901912
10038908687
10038916377
10038922359
10038927974
10038933406
10038940730
10038946040
10038953975
10038961726
10038967036
10038973689
10038980647
10038987178
10038994502
10039003657
10039009639
10039017879
10039021785
10039029903
10039035823
10039043574
10039050166
10039058284
10039065059
10039072688
10039079524
10039086909
10039093379
10039098750
10039108149
10039114985
10039122615
10039129023
10039138057
10039144465
10039154170
10039160578
10039170588
10039176387
10039183345
10039190364
10039199092
10039204524
10039212947
10039218928
10039225825
10039233637
10039240412
10039247004
10039253779
10039261347
10039268183
10039274409
10039281306
10039289240
10039296076
10039304011
10039310725
10039318049
10039325007
10039331721
10039338557
10039345331
10039353754
10039360285
10039367426
10039373957
10039381342
10039387873
10039395990
10039403864
10039411249
10039419062
10039426447
10039432917
10039439569
10039446222
10039453546
10039460382
10039468439
10039475214
10039483332
10039491999
10039498529
10039505365
10039513910
10039520502
10039526727
10039535089
10039539789
10039548029
10039553888
10039559747
10039565668
10039573419
10039580316
10039585565
10039592767
10039598138
10039603876
10039610834
10039616876
10039624078
10039629266
10039636163
10039641351
10039648248
10039653314
10039660882
10039666986
10039672418
10039680230
10039686151
10039692254
10039699090
10039705255
10039710870
10039716913
10039725030
10039731073
10039736505
10039742547
10039749078
10039755059
10039762017
10039768060
10039774407
10039781793
10039787225
10039793450
10039799920
10039807733
10039814080
10039821343
10039827569
10039834344
10039842950
10039849358
10039854485
10039860406
10039867791
10039875420
10039882195
10039889214
10039896111
10039901543
10039907037
10039913262
10039920098
10039925469
10039930535
10039937188
10039942315
10039947869
10039955254
10039960320
10039966973
10039972466
10039978692
10039984185
10039990227
10039996148
10040003899
10040011040
10040016045
10040023247
10040027947
10040035088
10040040215
10040046990
10040052971
10040059868
10040065117
10040070610
10040077873
10040084831
10040090752
10040096306
10040103142
10040109978
10040115166
10040122734
10040128472
10040135063
10040140679
10040149712
10040154900
10040160271
10040167839
10040173210
10040178764
10040187736
10040194023
10040201958
10040207390
10040213615
10040220573
10040226616
10040233086
10040240776
10040246269
10040254082
10040260063
10040266350
10040273979
10040279350
10040285209
10040292839
10040300468
10040306877
10040312248
10040320305
10040325737
10040331779
10040339897
10040346305
10040352836
10040358818
10040365592
10040371269
10040378715
10040385429
10040397880
10040405631
10040411552
10040418144
10040426444
10040432426
10040440788
10040446342
10040453910
10040460685
10040468620
10040474723
10040481620
10040487724
10040493400
10040499564
10040507133
10040513297
10040519034
10040525138
10040531669
10040537833
10040545341
10040551444
10040557609
10040563773
10040570731
10040576896
10040582938
10040588981
10040594718
10040602469
10040607962
10040614310
10040620963
10040627250
10040632987
10040640982
10040646476
10040654105
10040659964
10040665335
10040673087
10040678397
10040684683
10040690421
10040698233
10040704093
10040711356
10040716971
10040722769
10040725943
10040734610
10040741263
10040749686
10040757254
10040764456
10040771841
