10057854989
10057861947
10057867013
10057873177
10057878487
10057885140
10057890694
10057897042
10057903695
10057909188
10057915291
10057919625
10057925789
10057932076
10057937996
10057944466
10057950875
10057956795
10057963387
10057969551
10057975106
10057982002
10057988350
10057995857
10058001839
10058009407
10058015877
10058022225
10058027840
10058033699
10058041145
10058048592
10058055977
10058062935
10058071175
10058078011
10058085091
10058093391
10058103340
10058109749
10058114815
10058123665
10058129341
10058137764
10058147346
10058153938
10058161201
10058168281
10058173286
10058182625
10058189277
10058196846
10058205574
10058213264
10058220466
10058225776
10058235603
10058241706
10058247993
10058256538
10058264045
10058271919
10058280586
10058288703
10058296516
10058302619
10058311591
10058317634
10058324287
10058331855
10058341926
10058349311
10058357063
10058364387
10058370002
10058380683
10058388618
10058396369
10058405768
10058412421
10058421821
10058430610
10058438544
10058447638
10058455878
10058463202
10058473273
10058479010
10058487983
10058494513
10058501471
10058508002
10058516852
10058523078
10058531928
10058537421
10058546393
10058552008
10058560980
10058569831
10058576361
10058584418
10058592658
10058598395
10058606757
10058613898
10058622260
10058628485
10058636786
10058642767
10058651007
10058659186
10058664740
10058671210
10058679571
10058688727
10058696417
10058703558
10058709173
10058717291
10058724798
10058732489
10058740668
10058747809
10058753424
10058762091
10058770636
10058777716
10058785284
10058792669
10058802008
10058808477
10058815802
10058823919
10058830023
10058838324
10058845098
10058851568
10058860235
10058868353
10058876470
10058882025
10058890264
10058897527
10058904974
10058912847
10058922491
10058928533
10058937688
10058944769
10058951543
10058959905
10058968572
10058974798
10058985479
10058993230
10059001348
10059008611
10059014287
10059022161
10059029546
10059038885
10059045598
10059053045
10059061529
10059068731
10059076299
10059083135
10059090825
10059098333
10059106572
10059113836
10059120183
10059129460
10059138127
10059145269
10059155034
10059162725
10059172490
10059179997
10059186833
10059196050
10059203557
10059212529
10059219792
10059227971
10059233891
10059242192
10059248418
10059256596
10059264043
10059272282
10059279301
10059287785
10059294987
10059301823
10059308842
10059316350
10059323369
10059331730
10059340581
10059346867
10059355839
10059361210
10059370488
10059377079
10059385319
10059393010
10059399662
10059408268
10059414677
10059421391
10059429692
10059436344
10059444767
10059451359
10059459233
10059465702
10059473759
10059481205
10059488590
10059495548
10059503544
10059511173
10059518803
10059525700
10059531925
10059541203
10059549137
10059556828
10059562992
10059574528
10059582218
10059589786
10059597294
10059604618
10059611027
10059620060
10059626224
10059635685
10059644779
10059651920
10059659244
10059667728
10059673404
10059682071
10059692569
10059698307
10059706729
10059715641
10059722843
10059729129
10059736576
10059745365
10059755069
10059763309
10059770206
10059777347
10059786075
10059794132
10059803531
10059811649
10059819339
10059826541
10059833865
10059841251
10059851016
10059857120
10059865482
10059877811
10059885440
10059893375
10059901370
10059909183
10059917239
10059930423
10059938235
10059946841
10059954165
10059960330
10059968081
10059974734
10059983950
10059991214
10059998538
10060006106
10060014346
10060021243
10060028506
10060037600
10060046939
10060053958
10060063845
10060072390
10060078189
10060086672
10060091555
10060101626
10060108950
10060114993
10060122866
10060130312
10060139468
10060144717
10060154910
10060162600
10060169131
10060176272
10060184756
10060190249
10060197939
10060207949
10060213564
10060221743
10060229311
10060236025
10060242373
10060249087
10060257265
10060265566
10060272341
10060281069
10060288637
10060294924
10060301638
10060309206
10060317018
10060324953
10060330751
10060337648
10060343019
10060349672
10060356630
10060363771
10060368532
10060375490
10060382570
10060388613
10060395265
10060401186
10060409181
10060414613
10060421755
10060428896
10060435793
10060442079
10060448061
10060455568
10060461855
10060468935
10060475099
10060481203
10060489564
10060496095
10060501588
10060508180
10060515932
10060522828
10060530275
10060536989
10060544130
10060551881
10060559205
10060566469
10060574098
10060581788
10060589418
10060596498
10060605043
10060611756
10060617677
10060625306
10060630921
10060637025
10060643678
10060650270
10060657289
10060664002
10060672364
10060679200
10060685304
10060692262
10060699708
10060706422
10060712403
10060721131
10060728516
10060734803
10060740418
10060748963
10060753968
10060762391
10060767762
10060776185
10060781495
10060790284
10060796265
10060803162
10060810242
10060817200
10060824280
10060831849
10060840027
10060847291
10060854493
10060861756
10060868592
10060876099
10060881836
10060888306
10060896790
10060904358
10060912537
10060919922
10060925659
10060933899
10060939759
10060946900
10060955445
10060963318
10060969910
10060976441
10060985047
10060989929
10060999451
10061004944
10061014771
10061020630
10061029175
10061037476
10061044250
10061050354
10061057129
10061062561
10061069885
10061078003
10061086731
10061092346
10061099365
10061106384
10061113281
10061118591
10061127441
10061132751
10061143188
10061148803
10061155700
10061162841
10061169738
10061175476
10061183715
10061189453
10061198974
10061205139
10061212341
10061220947
10061228271
10061234802
10061241760
10061248413
10061254699
10061264709
10061273620
10061287170
10061294799
10061303161
10061312621
10061320007
10061331664
10061340881
10061347900
10061356322
10061362914
10061371581
10061376586
10061385741
10061392699
10061399535
10061406432
10061413695
10061420714
10061427978
10061436461
10061443969
10061450377
10061457702
10061465636
10061472960
10061481078
10061486998
10061495482
10061503295
10061510985
10061515563
10061524352
10061532408
10061538329
10061545775
10061554442
10061560240
10061568907
10061574339
10061583739
10061588622
10061598021
10061605650
10061612486
10061619017
10061629210
10061635313
10061642210
10061649107
10061655577
10061661314
10061667418
10061673521
10061681090
10061686705
10061692625
10061697935
10061705504
10061710631
10061718199
10061725218
10061730711
10061737547
10061742918
10061748900
10061755797
10061762205
10061767515
10061773558
10061780455
10061786741
10061792418
10061798094
10061804441
10061810240
10061816893
10061824583
10061830320
10061836912
10061842283
10061848936
10061856321
10061861265
10061868589
10061873167
10061880247
10061886472
10061892942
10061897642
10061904173
10061910886
10061916441
10061921812
10061927366
10061933775
10061941343
10061947630
10061954221
10061958921
10061966550
10061973264
10061979063
10061986021
10061992002
10061999265
10062004819
10062009885
10062016721
10062022153
10062028501
10062034177
10062041013
10062045286
10062051511
10062058408
10062064145
10062069577
10062076047
10062081845
10062088620
10062094236
10062101438
10062106748
10062113706
10062118955
10062124204
10062131467
10062136777
10062143430
10062149655
10062156186
10062160520
10062167111
10062174436
10062180295
10062187497
10062193417
10062198972
10062204526
10062210324
10062216489
10062224362
10062229428
10062237302
10062243161
10062250485
10062257260
10062262997
10062269833
10062275571
10062283810
10062290890
10062296445
10062303708
10062309384
10062316525
10062323605
10062328610
10062336239
10062341305
10062348202
10062354550
10062360348
10062367245
10062372982
10062377621
10062386837
10062391903
10062399105
10062405148
10062411984
10062417599
10062424252
10062429379
10062436520
10062442135
10062449703
10062457150
10062465206
10062470638
10062479183
10062483883
10062490597
10062497616
10062503841
10062509152
10062516964
10062522396
10062530148
10062536373
10062544735
10062550106
10062558163
10062566158
10062571407
10062578670
10062586361
10062595272
10062602901
10062608700
10062614803
10062622616
10062627865
10062635494
10062642086
10062649593
10062654842
10062661922
10062669063
10062676448
10062683101
10062689510
10062696041
10062702877
10062709041
10062715816
10062722042
10062728816
10062734981
10062741268
10062747615
10062753780
10062759883
10062767696
10062773433
10062779048
10062786922
10062793147
10062798763
10062806026
10062811702
10062817378
10062825008
10062830501
10062838313
10062844844
10062850337
10062857417
10062862971
10062869990
10062875850
10062883174
10062890254
10062895503
10062903010
10062908809
10062916377
10062924006
10062929439
10062937007
10062944453
10062953059
10062956538
10062965083
10062973811
10062979182
10062986934
10062996028
10063002742
10063009577
10063014888
10063022700
10063028071
10063034663
10063042842
10063050715
10063057490
10063066523
10063072138
10063081477
10063090510
10063099177
10063106013
10063115351
10063121760
10063129084
10063135920
10063143244
10063150629
10063158259
10063163996
10063172785
10063178461
10063187678
10063193598
10063202509
10063208307
10063215693
10063225519
10063231196
10063246821
10063254145
10063261469
10063270014
10063277399
10063287348
10063295160
10063301630
10063307489
10063316034
10063322077
10063328974
10063336847
10063343073
10063349970
10063357965
10063363580
10063368952
10063374445
10063381952
10063388422
10063393915
10063400385
10063407404
10063412225
10063419305
10063424860
10063431879
10063437494
10063444452
10063450067
10063456842
10063462152
10063469232
10063476129
10063481012
10063488702
10063493646
10063502679
10063505792
10063513543
10063520074
10063525995
10063532403
10063538263
10063544183
10063550042
10063555841
10063563104
10063568841
10063574395
10063579461
10063588617
10063594659
10063600701
10063606744
10063612054
10063617059
10063623651
10063629510
10063635980
10063640557
10063646905
10063651422
10063658929
10063663995
10063671746
10063677300
10063683404
10063688653
10063693536
10063699761
10063705132
10063711541
10063718377
10063723443
10063728265
10063734978
10063740594
10063747674
10063753228
10063758965
10063765252
10063770135
10063776055
10063782281
10063789910
10063796929
10063807488
10063814507
10063818841
10063828728
10063835320
10063842156
10063848809
10063854790
10063860772
10063867608
10063873772
10063881340
10063887810
10063895562
10063901726
10063908501
10063914849
10063922539
10063928215
10063937248
10063943230
10063951103
10063956474
10063965996
10063972588
10063978996
10063985710
10063991264
10063998100
10064004021
10064010063
10064017204
10064022575
10064029045
10064036736
10064043938
10064050407
10064056938
10064063347
10064068474
10064076042
10064083061
10064088859
10064095146
10064101799
10064108085
10064113884
10064122307
10064129326
10064135917
10064142753
10064149101
10064155571
10064161674
10064169304
10064176445
10064182975
10064188713
10064195182
10064200492
10064207695
10064216606
10064221488
10064228202
10064235832
10064240470
10064248344
10064254936
10064261588
10064268546
10064273856
10064281852
10064286125
10064294181
10064301872
10064307060
10064315543
10064322623
10064329765
10064337211
10064344047
10064355216
10064362113
10064370475
10064375236
10064384086
10064391410
10064397574
10064403861
10064409232
10064417655
10064424918
10064431205
10064438285
10064444938
10064451285
10064456778
10064462699
10064470755
10064477042
10064483145
10064490958
10064498404
10064505484
10064511527
10064518241
10064526663
10064533805
10064541556
10064546988
10064553275
10064561942
10064569876
10064576041
10064583304
10064589713
10064596487
10064602896
10064610159
10064618460
10064625906
10064632925
10064640372
10064647208
10064655630
10064665457
10064671927
10064678702
10064686270
10064694205
10064697378
10064708853
10064720389
10064727957
10064734243
10064740408
10064748465
10064755850
10064766531
10064774221
10064783865
10064792349
10064799429
10064806021
10064813528
10064820669
10064828726
10064835623
10064843618
10064851431
10064856558
10064867300
10064875051
10064879324
10064887258
10064893240
10064898672
10064903371
10064912466
10064922964
10064927847
10064935903
10064942007
10064946462
10064955190
10064961843
10064968740
10064974416
10064980886
10064988454
10064995168
10065002065
10065007924
10065014577
10065019338
10065026601
10065032705
10065038320
10065046621
10065052724
10065057668
10065065847
10065071767
10065078115
10065084767
10065091542
10065096730
10065102834
10065108388
10065114003
10065120900
10065127309
10065133351
10065139516
10065144460
10065151662
10065155812
10065163197
10065170522
10065175221
10065180776
10065185719
10065191579
10065197194
10065203236
10065208913
10065216298
10065221730
10065227711
10065235097
10065239735
10065247060
10065253163
10065258229
10065263417
10065271535
10065277394
10065283864
10065289052
10065295216
10065301747
10065307606
10065315053
10065320790
10065325490
10065331288
10065338246
10065345509
10065351124
10065357655
10065363575
10065369313
10065374684
10065380482
10065388478
10065393605
10065399464
10065406971
10065414173
10065421803
10065429737
10065441151
10065447926
10065455799
10065460865
10065468556
10065476185
10065482655
10065489613
10065496449
10065502369
10065509754
10065514454
10065522877
10065531422
10065538013
10065545154
10065551258
10065556202
10065563648
10065570789
10065577991
10065584766
10065591602
10065598743
10065603199
10065611377
10065618519
10065624500
10065630481
10065638050
10065641834
10065651111
10065657337
10065663257
10065670520
10065677051
10065682910
10065692005
10065699268
10065705249
10065710559
10065716541
10065724109
10065731372
10065737964
10065745349
10065751087
10065757800
10065763904
10065769946
10065778430
10065784595
10065790637
10065797351
10065803516
10065810535
10065816943
10065825061
10065832629
10065837024
10065843555
10065850879
10065856799
10065862659
10065869189
10065878039
10065885119
10065891955
10065899096
10065905749
10065913135
10065921801
10065927050
10065934741
10065942187
10065949145
10065958545
10065966174
10065972949
10065980273
10065987536
10065996997
10066004443
10066010729
10066019519
10066029528
10066037341
10066044360
10066050952
10066060473
10066067248
10066073901
10066081652
10066087206
10066094775
10066101000
10066108508
10066115893
10066122973
10066130114
10066135729
10066142382
10066151049
10066158617
10066165514
10066171923
10066179613
10066186144
10066193896
10066203295
10066212633
10066218493
10066227221
10066233934
10066242296
10066247911
10066258532
10066265184
10066272387
10066280138
10066288866
10066295092
10066303881
10066311754
10066318834
10066325975
10066335436
10066341905
10066349718
10066359728
10066365648
10066373155
10066379991
10066386278
10066393297
10066398241
10066405016
10066412401
10066416612
10066423631
10066428880
10066435350
10066440721
10066446825
10066453722
10066459764
10066465867
10066470994
10066476915
10066484727
10066490709
10066497362
10066502183
10066508165
10066515306
10066520189
10066526536
10066533494
10066537889
10066544725
10066550340
10066556260
10066564500
10066571275
10066578172
10066587083
10066593553
10066599473
10066604966
10066611253
10066617112
10066622300
10066629197
10066634202
10066639817
10066647325
10066652329
10066658128
10066663926
10066670091
10066676194
10066683274
10066689011
10066694383
10066698655
10066705796
10066712083
10066718003
10066723618
10066730210
10066734910
10066741379
10066745957
10066751633
10066761643
10066770493
10066777695
10066787278
10066795090
10066801560
10066808335
10066814133
10066820725
10066827622
10066833786
10066840317
10066847275
10066853562
10066859848
10066866257
10066873032
10066878952
10066884384
10066891709
10066897629
10066902207
10066908310
10066915451
10066920639
10066927902
10066935898
10066942429
10066949509
10066955185
10066961777
10066969040
10066975205
10066980759
10066988693
10066995163
10067001877
10067009689
10067015366
10067022263
10067027756
10067033798
10067040268
10067046371
10067053512
10067061325
10067066086
10067073959
10067082443
10067090317
10067097580
10067104477
10067112472
10067120041
10067125961
10067131942
10067138961
10067148300
10067157028
10067163192
10067169235
10067176376
10067184066
10067190597
10067197311
10067204452
10067211349
10067217636
10067221664
10067229171
10067236556
10067242355
10067249923
10067255905
10067262008
10067268600
10067275008
10067283370
10067290267
10067294906
10067301742
10067308212
10067313949
10067322921
10067330367
10067336410
10067344100
10067349227
10067355514
10067363021
10067368819
10067375350
10067381942
10067388473
10067394149
10067401046
10067406783
10067413375
10067419783
10067428206
10067435042
10067441451
10067450179
10067457137
10067464522
10067471907
10067478438
10067484908
10067491866
10067499190
10067503829
10067512252
10067517989
10067525862
10067531722
10067540450
10067549117
10067555525
10067561934
10067569319
10067576399
10067583968
10067591048
10067599654
10067606367
10067615157
10067620650
10067627547
10067636092
10067646162
10067654951
10067663618
10067671614
10067679182
10067686873
10067695295
10067704634
10067711714
10067719709
10067725569
10067732344
10067739546
10067744551
10067755232
10067763288
10067770307
10067777937
10067783247
10067789839
10067798933
10067804792
10067812239
10067820967
10067828230
10067836042
10067843305
10067850813
10067859052
10067864973
10067872968
10067880232
10067886823
10067895307
10067901044
10067908308
10067914228
10067920026
10067926862
10067931623
10067939924
10067946332
10067952192
10067957563
10067963239
10067969892
10067977582
10067983991
10067991437
10067996442
10068002302
10068007551
10068013227
10068021222
10068027082
10068032575
10068040448
10068045514
10068051679
10068057050
10068064252
10068070417
10068075177
10068081586
10068087201
10068093427
10068100995
10068106916
10068112103
10068117291
10068122968
10068129254
10068134198
10068141095
10068148175
10068153485
10068159223
10068166058
10068173138
10068178876
10068185468
10068189801
10068197064
10068203290
10068210126
10068216290
10068221600
10068228924
10068234906
10068241254
10068246869
10068252911
10068258282
10068265301
10068271405
10068276532
10068283551
10068289349
10068293866
10068300335
10068307782
10068314068
10068319684
10068327313
10068332745
10068340802
10068346478
10068351849
10068357891
10068364483
10068369732
10068376202
10068384075
10068389752
10068396771
10068403057
10068408978
10068415814
10068423992
10068430584
10068436993
10068441631
10068448528
10068455486
10068462139
10068470074
10068476605
10068482769
10068487591
10068494061
10068501446
10068508038
10068514751
10068521831
10068528240
10068533977
10068541363
10068548015
10068555462
10068562115
10068567547
10068574932
10068580303
10068587749
10068596355
10068601848
10068608379
10068613811
10068621074
10068629375
10068636089
10068642253
10068650249
10068654888
10068661541
10068667888
10068675518
10068683147
10068688823
10068695415
10068702434
10068707073
10068716899
10068724407
10068733867
10068740764
10068747356
10068754680
10068762676
10068769511
10068776347
10068783977
10068789775
10068796733
10068803020
10068809795
10068818462
10068823650
10068830241
10068837321
10068841594
10068850505
10068855388
10068863139
10068870524
10068876445
10068882792
10068889689
10068895610
10068902141
10068910014
10068916118
10068922465
10068928447
10068935160
10068946025
10068952555
10068959208
10068965190
10068971842
10068980326
10068987406
10068993693
10069000346
10069007060
10069014018
10069020365
10069027079
10069036479
10069043559
10069050211
10069056864
10069064066
10069072367
10069078898
10069086100
10069091898
10069100626
10069106974
10069114359
10069124003
10069130778
10069139017
10069147379
10069153605
10069161722
10069169901
10069177225
10069185953
10069191691
10069200174
10069206766
10069214090
10069222025
10069229532
10069236185
10069243570
10069251444
10069257364
10069264566
10069274027
10069281656
10069290079
10069298075
10069306192
10069313822
10069322061
10069329447
10069340738
10069348489
10069356241
10069364237
10069371561
10069378214
10069386331
10069394754
10069400674
10069407083
10069411661
10069417276
10069424112
10069432107
10069438333
10069444620
10069450235
10069455850
10069462076
10069468484
10069476602
10069481424
10069488321
10069492410
10069498147
10069504800
10069510659
10069517129
10069524026
10069529824
10069536050
10069541726
10069547647
10069553689
10069559854
10069566018
10069572427
10069576638
10069585183
10069591836
10069598062
10069602212
10069608804
10069614541
10069618752
10069624978
10069632058
10069637551
10069642922
10069649209
10069656228
10069662026
10069669839
10069673867
10069680398
10069686868
10069691262
10069696755
10069702798
10069709023
10069714150
10069719826
10069725014
10069730691
10069736611
10069742715
10069748757
10069753762
10069761269
10069767556
10069775063
10069781350
10069788552
10069794350
10069800515
10069807290
10069812661
10069819313
10069826821
10069836647
10069843178
10069851113
10069858681
10069865334
10069871315
10069877602
10069883644
10069890114
10069896645
10069904396
10069910011
10069916542
10069923256
10069931801
10069940041
10069944801
10069952492
10069958351
10069965004
10069972145
10069978676
10069986244
10069993752
10069997902
10070006081
10070012794
10070017189
10070026222
10070033913
10070039894
10070045143
10070051124
10070057289
10070061806
10070071266
10070079323
10070084388
10070090858
10070097023
10070103492
10070112404
10070118812
10070124977
10070133216
10070138893
10070145118
10070153419
10070161354
10070166542
10070173378
10070177894
10070186012
10070191749
10070199317
10070206031
10070210914
10070219581
10070225868
10070232459
10070238197
10070246681
10070252967
10070258460
10070267371
10070272620
10070280311
10070286903
10070294471
10070300330
10070306251
10070313209
10070319312
10070326575
10070333900
10070340674
10070347266
10070355262
10070363135
10070370643
10070379371
10070390357
10070397071
10070404700
10070408973
10070418250
10070426612
10070430518
10070438941
10070445899
10070452063
10070459265
10070466162
10070472632
10070479651
10070485816
10070494544
10070502051
10070508887
10070515174
10070523169
10070530860
10070538855
10070543005
10070553503
10070561682
10070568884
10070575293
10070581458
10070587744
10070594275
10070601172
10070609961
10070617346
10070623144
10070629858
10070637732
10070643042
10070652685
10070659155
10070666723
10070672888
10070680578
10070688086
10070695959
10070705114
10070712866
10070720251
10070729834
10070739477
10070746069
10070755346
10070762670
10070771093
10070777502
10070785986
10070792883
10070800573
10070809362
10070818334
10070823034
10070833227
10070840612
10070848425
10070856298
10070864172
10070870885
10070876745
10070884557
10070889135
10070896520
10070904638
10070911779
10070919225
10070925634
10070932104
10070938940
10070944005
10070951879
10070961767
10070967199
10070974889
10070980748
10070987951
10070996434
10071004003
10071010411
10071015172
10071020848
10071027440
10071032445
10071039769
10071046117
10071051976
10071058324
10071063756
10071070348
10071076207
10071082494
10071090001
10071095433
10071101659
10071107335
10071110509
10071117040
10071123876
10071128819
10071134129
10071140599
10071146031
10071152989
10071159947
10071165746
10071169530
10071176244
10071182469
10071187291
10071193822
10071201573
10071205846
10071211583
10071216466
10071221593
10071228551
10071234532
10071240452
10071246007
10071251866
10071257481
10071261815
10071269017
10071275242
10071280919
10071286717
10071290684
10071296544
10071303868
10071310399
10071316624
10071322667
10071327427
10071333409
10071340916
10071346226
10071352879
10071358494
10071365452
10071371861
10071379185
10071386204
10071393162
10071399815
10071406040
10071413181
10071418858
10071425327
10071434422
10071439304
10071445957
10071453770
10071461216
10071468174
10071475315
10071484470
10071492161
10071498630
10071504612
10071510837
10071518345
10071526157
10071531956
10071538242
10071545200
10071551609
10071559788
10071566379
10071572727
10071579929
10071586094
10071592807
10071600559
10071607090
10071613620
10071620578
10071626377
10071632785
10071638156
10071645053
10071652927
10071658847
10071665500
10071671482
10071677707
10071685459
10071693393
10071699375
10071704746
10071710666
10071718784
10071723972
10071732028
10071738864
10071745395
10071751804
10071758334
10071763278
10071772067
10071779636
10071785312
10071792270
10071801913
10071809604
10071815036
10071822116
10071828647
10071835849
10071841220
10071848056
10071854831
10071861178
10071867709
10071872592
10071880160
10071886813
10071893039
10071899875
10071907748
10071913913
10071920565
10071927096
10071934176
10071939608
10071946566
10071954989
10071961093
10071969332
10071976596
10071982272
10071991793
10071998690
10072008883
10072020480
10072029147
10072037875
10072044833
10072053500
10072064486
10072071566
10072076571
10072086581
10072092745
10072097506
10072106417
10072115084
10072121371
10072127413
10072135042
10072140597
10072146883
10072154391
10072162020
10072169771
10072176729
10072184176
10072189913
10072197847
10072204622
10072211885
10072220430
10072227144
10072234285
10072240450
10072248934
10072255098
10072263643
10072272005
10072278414
10072286775
10072292208
10072301790
10072311739
10072319429
10072329317
10072336031
10072347139
10072353914
10072362215
10072370271
10072377229
10072385347
10072392488
10072395296
10072404451
10072411104
10072416841
10072421663
10072428132
10072434724
10072441255
10072447359
10072454133
10072460481
10072465852
10072472810
10072478486
10072484834
10072491121
10072497651
10072502900
10072509126
10072514192
10072520723
10072527314
10072531953
10072538301
10072544343
10072550569
10072556611
10072562287
10072569612
10072576997
10072581391
10072587983
10072594636
10072602204
10072610322
10072618440
10072626435
10072632905
10072636994
10072645234
10072650483
10072655610
10072663178
10072668000
10072673249
10072680329
10072685273
10072691437
10072697236
10072703400
10072709077
10072713532
10072718354
10072726533
10072731537
10072738556
10072745148
10072750336
10072756012
10072762909
10072769623
10072774689
10072780915
10072785859
10072791840
10072799103
10072805573
10072811127
10072818818
10072824433
10072830475
10072836884
10072844757
10072849884
10072856171
10072861664
10072868012
10072872528
10072880341
10072887360
10072894318
10072901337
10072909332
10072916290
10072922699
10072930695
10072936127
10072944794
10072950714
10072959320
10072966217
10072973114
10072979279
10072985992
10072992218
10072998260
10073006866
10073013763
10073020355
10073026764
10073030914
10073039398
10073046417
10073052826
10073059173
10073066620
10073073333
10073079193
10073085357
10073092621
10073099579
10073106170
10073114410
10073119903
10073131805
10073139495
10073147491
10073154266
10073161468
10073168792
10073176483
10073184966
10073192535
10073198577
10073205779
10073211761
10073218170
10073224456
10073232147
10073239227
10073245818
10073252593
10073261626
10073266753
10073273162
10073281097
10073287139
10073293853
10073299224
10073305083
10073312102
10073319427
10073325103
10073332427
10073339385
10073345244
10073352630
10073360442
10073367217
10073371856
10073378325
10073386321
10073391021
10073401702
10073409087
10073416533
10073423857
10073432952
10073438872
10073446562
10073454497
10073464385
10073470488
10073478545
10073483428
10073493987
10073499663
10073508269
10073517668
10073522917
10073531157
10073538481
10073543974
10073553801
10073561308
10073569731
10073575163
10073582915
10073588530
10073594694
10073609953
10073616667
10073623747
10073631682
10073640532
10073647062
10073655180
10073663481
10073669706
10073677519
10073685576
10073694365
10073701445
10073710417
10073718107
10073726652
10073738676
10073746366
10073753385
10073761259
10073769438
10073775907
10073782804
10073790800
10073797819
10073805082
10073813139
10073818571
10073828825
10073835050
10073840727
10073848600
10073856290
10073864408
10073871427
10073878812
10073886076
10073892301
10073901517
10073907133
10073916166
10073923307
10073929288
10073934904
10073939237
10073946988
10073953885
10073960782
10073968107
10073974637
10073979642
10073985990
10073990934
10073996915
10074003263
10074009549
10074016446
10074020291
10074027738
10074033780
10074040372
10074047940
10074053128
10074059659
10074065824
10074071988
10074077909
10074084073
10074091092
10074095792
10074102567
10074108426
10074113858
10074122403
10074130093
10074135587
10074140958
10074146878
10074153470
10074157437
10074163724
10074170254
10074175748
10074181424
10074187527
10074193753
10074200528
10074206814
10074210904
10074217374
10074222684
10074228787
10074233914
10074240017
10074247159
10074253506
10074263516
10074269375
10074274502
10074283902
10074290249
10074295803
10074306118
10074314907
10074320828
10074326687
10074333645
10074339444
10074346035
10074350979
10074356716
10074363491
10074370022
10074375088
10074383572
10074390774
10074397793
10074404385
10074410610
10074414700
10074422634
10074428738
10074434658
10074442104
10074449917
10074456142
10074464138
10074470242
10074476772
10074484096
10074491177
10074496426
10074503017
10074509609
10074516994
10074524868
10074531643
10074538234
10074544521
10074551357
10074557033
10074564052
10074571499
10074576137
10074584682
10074591213
10074597194
10074603847
10074608303
10074617092
10074623561
10074629482
10074636684
10074643886
10074649929
10074657070
10074663967
10074670619
10074677638
10074683376
10074689968
10074694972
10074703456
10074711269
10074717311
10074723720
10074729579
10074736354
10074742213
10074748683
10074754787
10074761989
10074770106
10074777064
10074785548
10074793788
10074800502
10074807521
10074817958
10074826869
10074834865
10074841762
10074846522
10074852992
10074861232
10074868190
10074874049
10074882167
10074888392
10074895839
10074901210
10074908107
10074915797
10074921962
10074929896
10074936122
10074944422
10074950587
10074956507
10074964808
10074971278
10074976283
10074985133
10074991480
10074998744
10075006251
10075011256
10075019495
10075027186
10075033717
10075039820
10075047755
10075052882
10075060511
10075068629
10075077235
10075084193
10075091456
10075098597
10075106653
10075112330
10075118433
10075127649
10075134546
10075141260
10075148340
10075154566
10075163721
10075171106
10075180262
10075185633
10075194544
10075202662
10075211267
10075219324
10075227442
10075235254
10075243006
10075251123
10075258142
10075265955
10075272425
10075282434
10075290064
10075297632
10075306848
10075311670
10075325159
10075332300
10075340845
10075348962
10075356409
10075364221
10075371240
10075379724
10075386499
10075394617
10075404138
10075411584
10075418725
10075427942
10075437280
10075445581
10075451684
10075461084
10075468530
10075479699
10075488000
10075494287
10075500390
10075506616
10075514245
10075520044
10075527795
10075533837
10075539270
10075546777
10075553308
10075558984
10075566491
10075571984
10075577172
10075584619
10075590661
10075595971
10075603112
10075608422
10075614159
10075621240
10075626855
10075633813
10075639916
10075645287
10075651452
10075658410
10075665795
10075670495
10075677270
10075683495
10075689416
10075695580
10075701440
10075708642
10075715478
10075722069
10075727135
10075732506
10075739281
10075744530
10075749352
10075756676
10075762902
10075768029
10075773949
10075779381
10075785180
10075790306
10075797203
10075803246
10075809471
10075813805
10075819969
10075825646
10075832238
10075837303
10075844261
10075849633
10075854393
10075861901
10075869225
10075875328
10075879967
10075888085
10075893028
10075898399
10075904747
10075910606
10075915855
10075923119
10075928734
10075935875
10075941612
10075948204
10075953819
10075960350
10075966942
10075972984
10075978538
10075984337
10075991600
10075996605
10076002403
10076008934
10076017235
10076025291
10076033043
10076043663
10076050621
10076057396
10076065391
10076071739
10076077293
10076084922
10076090843
10076098045
10076103599
10076110984
10076116905
10076124168
10076131553
10076136497
10076144432
10076149436
10076156944
10076162010
10076169456
10076176536
10076183006
10076187827
10076197044
10076202964
10076209251
10076215904
10076222312
10076229881
10076236350
10076242637
10076250449
10076255454
10076263145
10076267478
10076275230
10076280784
10076288657
10076294456
10076300681
10076306296
10076314048
10076320762
10076326316
10076332847
10076339927
10076345298
10076352988
10076359031
10076366172
10076372275
10076377890
10076384604
10076391745
10076397177
10076404380
10076410483
10076417746
10076423362
10076430686
10076437644
10076444052
10076450949
10076455771
10076463950
10076468955
10076474875
10076482260
10076489707
10076494711
10076502768
10076509055
10076515219
10076521872
10076528220
10076535483
10076542502
10076548422
10076555441
10076561911
10076566794
10076580344
10076587302
10076593832
10076600424
10076608114
10076614035
10076619894
10076626181
10076634787
10076641256
10076649252
10076654440
10076663656
10076670797
10076680563
10076688131
10076696310
10076703268
10076712545
10076719137
10076727377
10076732260
10076739584
10076744528
10076753988
10076759176
10076767782
10076772726
10076781027
10076786031
10076794332
10076801107
10076807272
10076815267
10076821981
10076827840
10076849142
10076854574
10076863119
10076868429
10076876424
10076884054
10076891073
10076896566
10076904622
10076909933
10076919454
10076924703
10076932393
10076937887
10076944417
10076952352
10076960347
10076968282
10076975362
10076980184
10076988057
10076995626
10077002584
10077008260
10077016927
10077022908
10077033895
10077040303
10077047627
10077053426
10077061360
10077070027
10077077474
10077084615
10077094930
10077101827
10077109273
10077115682
10077123067
10077129475
10077138509
10077145955
10077152547
10077161092
10077167683
10077175923
10077182393
10077189229
10077197468
10077205220
10077210774
10077216817
10077221516
10077229756
10077235676
10077241292
10077246785
10077254536
10077261128
10077266316
10077273274
10077283589
10077289997
10077297383
10077304219
10077310261
10077317341
10077322895
10077329792
10077335285
10077342915
10077351582
10077357075
10077364338
10077372212
10077378498
10077386433
10077393086
10077399555
10077407246
10077411762
10077419514
10077424885
10077431904
10077435993
10077442768
10077448566
10077454670
10077462421
10077468098
10077474689
10077480427
10077486774
10077493061
10077500324
10077506122
10077512104
10077518879
10077524067
10077530536
10077537494
10077544025
10077549457
10077556904
10077561847
10077568561
10077573383
10077580463
10077586078
10077592853
10077597797
10077604999
10077612384
10077616291
10077624225
10077628925
10077636310
10077641986
10077648456
10077653156
10077659320
10077667072
10077671527
10077678058
10077682147
10077689655
10077694415
10077701068
10077706378
10077713336
10077719257
10077724017
10077730182
10077736346
10077740192
10077746478
10077754535
10077759845
10077765643
10077770160
10077778644
10077784503
10077790179
10077796039
10077803424
10077809466
10077815326
10077820392
10077827777
10077833209
10077840411
10077845416
10077853595
10077859576
10077866534
10077872516
10077877887
10077884112
10077890948
10077899066
10077903826
10077910479
10077916766
10077924761
10077931109
10077937213
10077943377
10077952166
10077958392
10077966570
10077972369
10077978167
10077983782
10077990984
10077996050
10078003924
10078009661
10078016497
10078022234
10078028948
10078033282
10078039935
10078047808
10078052691
10078060320
10078066363
10078072161
10078076678
10078083880
10078088335
10078097002
10078103960
10078109820
10078115862
10078121721
10078127276
10078132891
10078139666
10078147295
10078152788
10078158648
10078165850
10078172686
10078178118
10078184771
10078192095
10078199602
10078206987
10078212603
10078220110
10078226396
10078233782
10078239641
10078246355
10078254289
10078259233
10078267046
10078273943
10078280107
10078286699
10078292864
10078298784
10078307207
10078312761
10078321367
10078327287
10078334001
10078337541
10078349260
10078355608
10078362627
10078371049
10078377397
10078383684
10078392229
10078397355
10078406022
10078410722
10078419328
10078424516
10078433305
10078439531
10078446367
10078452531
10078461259
10078466630
10078475724
10078481095
10078488847
10078497819
10078503678
10078512040
10078519487
10078527299
10078534867
10078540788
10078548356
10078554215
10078561784
10078571244
10078581986
10078591752
10078598893
10078606156
10078613541
10078622575
10078630326
10078638139
10078646744
10078654313
10078660477
10078666093
10078675065
10078680924
10078687821
10078694474
10078703019
10078709794
10078715897
10078722367
10078729142
10078736344
10078743241
10078749222
10078758194
10078764542
10078771561
10078778336
10078785904
10078794205
10078801590
10078810440
10078818192
10078825455
10078832901
10078840470
10078847855
10078852066
10078861466
10078867142
10078877579
10078883377
10078891129
10078896439
10078904617
10078909927
10078917007
10078924149
10078930252
10078936600
10078943069
10078947830
10078955154
10078962173
10078968155
10078972916
10078980484
10078985061
10078992325
10078998367
10079005691
10079011001
10079016922
10079024429
10079031204
10079035660
10079042190
10079048355
10079054886
10079060623
10079067031
10079074478
10079078506
10079086013
10079091812
10079098587
10079103408
10079109878
10079120437
10079126052
10079132705
10079137954
10079144119
10079149368
10079155715
10079161941
10079167556
10079174026
10079178970
10079185317
10079190566
10079195327
10079203445
10079209365
10079214736
10079221023
10079228713
10079235915
10079241408
10079247634
10079254714
10079264480
10079269546
10079276076
10079280959
10079287429
10079294753
10079299026
10079306838
10079311110
10079318007
10079322402
10079329604
10079336989
10079344314
10079349013
10079356154
10079361892
10079368544
10079374038
10079380629
10079384780
10079391066
10079399306
10079404799
10079410536
10079417372
10079423171
10079428664
10079435561
10079442824
10079447463
10079455336
10079460707
10079467909
10079473097
10079480849
10079486769
10079493605
10079500624
10079505385
10079513686
10079521010
10079527296
10079533034
10079540663
10079547255
10079552748
10079558485
10079565504
10079573439
10079580641
10079586439
10079592848
10079598768
10079604017
10079611525
10079619337
10079626906
10079633009
10079640028
10079645887
10079652784
10079658583
10079664015
10079671949
10079677259
10079684645
10079690687
10079696241
10079702711
10079710829
10079717543
10079724623
10079731275
10079738416
10079744276
10079750135
10079758009
10079764539
10079771681
10079778516
10079784986
10079791151
10079798048
10079803968
10079811597
10079824964
10079832716
10079839613
10079845350
10079853406
10079859693
10079866590
10079873975
10079879651
10079886793
10079891248
10079898450
10079904371
10079911634
10079918775
10079926038
10079932386
10079939222
10079945447
10079950391
10079958753
10079964185
10079973035
10079978650
10079986524
10079993055
10080000196
10080005628
10080012830
10080019055
10080026197
10080031018
10080038281
10080045239
10080051831
10080058362
10080063306
10080071484
10080079175
10080086194
10080091443
10080099194
10080104626
10080112012
10080120496
10080126599
10080134961
10080140027
10080147412
10080153210
10080160596
10080167554
10080174267
10080182080
10080187329
10080194348
10080201184
10080207715
10080212842
10080220654
10080225598
10080235425
10080241162
10080249218
10080254589
10080262524
10080267956
10080274548
10080283093
10080292492
10080298352
10080308361
10080314099
10080322216
10080327587
10080334362
10080342419
10080349865
10080358593
10080366955
10080373119
10080381786
10080391369
10080399365
10080406994
10080415295
10080424084
10080431103
10080437389
10080444408
10080450024
10080458202
10080463512
10080473034
10080478649
10080486461
10080492382
10080508495
10080517345
10080526073
10080535595
10080544384
10080551891
10080558056
10080564342
10080572826
10080579357
10080586254
10080592113
10080600048
10080605541
10080612804
10080620067
10080625804
10080631114
10080638805
10080645275
10080652049
10080658275
10080664195
10080671764
10080677318
10080684398
10080691417
10080698192
10080704784
10080710521
10080715831
10080725047
10080730540
10080737315
10080743419
10080749461
10080758067
10080764110
10080769420
10080777659
10080784312
10080791697
10080797069
10080803782
10080809703
10080814952
10080821055
10080827159
10080833323
10080840098
10080845103
10080849864
10080858348
10080863780
10080870066
10080877391
10080883555
10080888499
10080895030
10080900462
10080906382
10080911814
10080917979
10080924632
10080930796
10080935740
10080940562
10080948008
10080954478
10080959971
10080966380
10080971201
10080977854
10080984385
10080990000
10080996714
10081002634
10081010081
10081015391
10081021128
10081030344
10081038401
10081043833
10081050852
10081059336
10081062266
10081072947
10081078318
10081084910
10081091623
10081095835
10081103159
10081107676
10081113779
10081121164
10081127268
10081132822
10081140329
10081146677
10081153269
10081158701
10081165232
10081173899
10081180490
10081186228
10081192270
10081197946
10081204050
10081209726
10081215280
10081223581
10081228891
10081236337
10081241281
10081248544
10081254099
10081260935
10081266184
10081273203
10081279367
10081286142
10081291269
10081298105
10081304208
10081308786
10081314951
10081321970
10081328561
10081333139
10081340951
10081345468
10081351633
10081358346
10081366098
10081371347
10081377206
10081383859
10081389657
10081395028
10081401071
10081408334
10081415963
10081420602
10081427926
10081434213
10081440377
10081446237
10081452951
10081461068
10081468148
10081475167
10081480416
10081488900
10081495492
10081501535
10081507943
10081515512
10081521432
10081528939
10081535775
10081540597
10081547677
10081555734
10081561227
10081568917
10081576363
10081582589
10081590035
10081597298
10081602059
10081609444
10081617257
10081622994
10081632394
10081638802
10081648690
10081655831
10081664864
10081670540
10081677376
10081685189
10081691536
10081696847
10081705330
10081711617
10081718026
10081725960
10081730660
10081738289
10081746041
10081751534
10081758736
10081766487
10081772957
10081781136
10081787422
10081794930
10081802315
10081809456
10081816658
10081823311
10081830208
10081836800
10081846565
10081851387
10081860848
10081867500
10081876045
10081882149
10081888313
10081898323
10081904976
10081911568
10081918648
10081926582
10081932381
10081940376
10081948250
10081955269
10081964424
10081970894
10081977608
10081984260
10081992073
10081999519
10082008125
10082015266
10082021980
10082030708
10082037422
10082045356
10082053535
10082061225
10082068672
10082075264
10082084846
10082091316
10082099739
10082108894
10082116279
10082124275
10082131721
10082138130
10082144050
10082152229
10082157783
10082164741
10082170783
10082177863
10082183906
10082189643
10082196479
10082204475
10082210822
10082217231
10082224555
10082231269
10082237434
10082243781
10082250312
10082257270
10082265815
10082274604
10082279914
10082288032
10082294440
10082302558
10082308844
10082316291
10082323188
10082327765
10082336493
10082343634
10082349128
10082355597
10082360907
10082368171
10082373053
10082378180
10082385749
10082391852
10082398688
10082405219
10082410529
10082417182
10082422553
10082428168
10082434760
10082439642
10082446173
10082451422
10082457648
10082464850
10082470953
10082476141
10082481451
10082486762
10082493353
10082498114
10082506659
10082511114
10082517889
10082522833
10082529364
10082533942
10082540472
10082546454
10082552679
10082559698
10082565680
10082571112
10082576910
10082582403
10082589178
10082595770
10082601019
10082607367
10082613104
10082617743
10082627447
10082633490
10082640570
10082644903
10082652105
10082657232
10082664373
10082670233
10082677252
10082683294
10082690374
10082695318
10082702520
10082707952
10082715093
10082720831
10082727850
10082734442
10082741400
10082747503
10082754278
10082760137
10082765569
10082773077
10082778997
10082786810
10082792669
10082800542
10082806036
10082814092
10082821905
10082828741
10082835882
10082845769
10082851995
10082860540
10082866338
10082872503
10082879705
10082886052
10082893255
10082899907
10082906682
10082912786
10082919744
10082925908
10082930791
10082938848
10082946477
10082952825
10082958745
10082965093
10082972112
10082980657
10082988042
10082995305
10083001409
10083005986
10083015142
10083021550
10083027532
10083034123
10083041692
10083047917
10083055180
10083061589
10083067265
10083073796
10083079961
10083086613
10083093877
10083101140
10083107182
10083112431
10083119206
10083127995
10083134465
10083141301
10083148137
10083153935
10083160649
10083168400
10083174687
10083180852
10083188725
10083195134
10083200139
10083207951
10083216130
10083223393
10083229618
10083235539
10083242863
10083249760
10083255864
10083261784
10083269780
10083277653
10083284977
10083290470
10083296696
10083304203
10083312687
10083317387
10083326115
10083333805
10083340580
10083347965
10083356449
10083364445
10083369755
10083377323
10083385807
10083394169
10083402042
10083410160
10083419071
10083428165
10083435245
10083441532
10083448490
10083460514
10083465519
10083471805
10083478519
10083486027
10083493046
10083500126
10083505680
10083514774
10083520145
10083528690
10083534427
10083542179
10083551212
10083557254
10083564579
10083573368
10083579837
10083587833
10083597415
10083605838
10083612186
10083618595
10083627078
10083633121
10083641178
10083650272
10083658328
10083666629
10083675052
10083682620
10083689517
10083699222
10083707339
10083716128
10083722415
10083731021
10083735538
10083748477
10083754397
10083762393
10083768680
10083775149
10083783328
10083789309
10083793826
10083802859
10083808474
10083814517
10083820926
10083828128
10083834903
10083840030
10083847110
10083854190
10083861392
10083867068
10083873965
10083880984
10083888491
10083895022
10083901919
10083907534
10083913821
10083920840
10083926821
10083932070
10083938235
10083943301
10083950442
10083955508
10083963686
10083971438
10083978762
10083985049
10083994570
10084001223
10084011599
10084017763
10084025149
10084032595
10084039248
10084045107
10084049624
10084059023
10084064638
10084070498
10084076357
10084082277
10084089358
10084097109
10084102602
10084109499
10084113649
10084119875
10084126284
10084132021
10084138124
10084143312
10084151003
10084157839
10084162600
10084169496
10084177004
10084181826
10084188967
10084194338
10084200380
10084207338
10084212465
10084219118
10084224855
10084232668
10084237856
10084243227
10084250063
10084258302
10084264711
10084270326
10084276247
10084282961
10084290712
10084296449
10084303834
10084309755
10084315065
10084323122
10084326845
10084335512
10084341737
10084350587
10084356141
10084362916
10084369569
10084376344
10084383485
10084390565
10084396913
10084403688
10084410768
10084416688
10084423402
10084429750
10084436830
10084444154
10084449281
10084456300
10084463807
10084470765
10084478639
10084484437
10084492005
10084497926
10084505311
10084510865
10084517701
10084525147
10084530763
10084539185
10084547242
10084556519
10084563905
10084572144
10084578797
10084584595
10084591431
10084598450
10084604859
10084612061
10084619324
10084624634
10084632630
10084641663
10084647706
10084653443
10084659546
10084667786
10084675660
10084680481
10084689026
10084695252
10084701416
10084707398
10084716126
10084721436
10084727662
10084734497
10084740662
10084747803
10084753968
10084759827
10084765992
10084772827
10084779053
10084784302
10084792298
10084798218
10084805237
10084813111
10084820069
10084826355
10084835022
10084841492
10084847473
10084855469
10084861511
10084868958
10084876648
10084884338
10084889404
10084896484
10084904358
10084911011
10084917541
10084926330
10084932068
10084938721
10084944885
10084953857
10084961304
10084967895
10084975952
10084984924
10084991272
10084999633
10085004211
10085012573
10085020752
10085026672
10085036804
10085042541
10085050781
10085056152
10085063964
10085071289
10085078369
10085085998
10085093322
10085101623
10085108886
10085115661
10085122924
10085129394
10085138427
10085146911
10085153808
10085162475
10085169128
10085176452
10085183898
10085193786
10085201720
10085210082
10085219665
10085228881
10085235534
10085244018
10085251708
10085259826
10085267272
10085273192
10085282653
10085290526
10085297301
10085303893
10085311278
10085318663
10085326232
10085334044
10085341429
10085345336
10085354125
10085360900
10085366881
10085373473
10085379393
10085385741
10085391661
10085398436
10085404357
10085409300
10085416686
10085421752
10085427611
10085434264
10085440428
10085446532
10085452452
10085458434
10085466063
10085471129
10085478697
10085485716
10085491148
10085498350
10085503844
10085510191
10085515684
10085522093
10085528990
10085534056
10085541075
10085546507
10085553770
10085560850
10085565489
10085573057
10085577696
10085585020
10085592772
10085598814
10085604796
10085610899
10085616392
10085621824
10085627256
10085634153
10085638426
10085646360
10085651670
10085657591
10085663816
10085670225
10085677244
10085681944
10085688902
10085693907
10085699949
10085704954
10085710996
10085718138
10085723997
10085729368
10085735532
10085741758
10085746458
10085753111
10085760984
10085766416
10085771604
10085776853
10085783384
10085788328
10085795042
10085800657
10085808042
10085816160
10085822446
10085830625
10085837095
10085846006
10085855344
10085860898
10085867673
10085872739
10085879392
10085886167
10085892881
10085898862
10085903379
10085910520
10085916929
10085922849
10085929685
10085935971
10085943174
10085949887
10085955869
10085963193
10085970151
10085977170
10085982419
10085989133
10085996823
10086002194
10086009519
10086015500
10086024045
10086030026
10086037045
10086043759
10086051206
10086058225
10086065488
10086071713
10086079526
10086085690
10086092343
10086099118
10086106259
10086112729
10086118588
10086126828
10086134091
10086142270
10086147153
10086153561
10086160519
10086165768
10086176144
10086184201
10086190915
10086197201
10086203610
10086209225
10086217282
10086223019
10086229489
10086236203
10086243954
10086248715
10086257321
10086263974
10086269711
10086277035
10086283016
10086289791
10086298153
10086305660
10086311337
10086317806
10086323483
10086330441
10086336178
10086344112
10086351742
10086356442
10086363766
10086373226
10086379024
10086389400
10086398251
10086406917
10086412960
10086419308
10086427914
10086434444
10086440304
10086446346
10086452816
10086459041
10086465633
10086472835
10086479610
10086486812
10086491634
10086499691
10086507015
10086513851
10086522335
10086526851
10086534053
10086539669
10086546810
10086556087
10086562496
10086569637
10086576961
10086582820
10086590267
10086596065
10086605464
10086611934
10086618953
10086626094
10086630977
10086641109
10086650630
10086657710
10086667903
10086676814
10086682796
10086691829
10086697566
10086709407
10086718440
10086726375
10086736018
10086740108
10086749812
10086756648
10086768489
10086776973
10086784175
10086792048
10086799006
10086807978
10086813960
10086826533
10086832820
10086843135
10086850398
10086859004
10086865168
10086871882
10086882075
10086888972
10086897456
10086904048
10086913508
10086920954
10086927546
10086935420
10086944209
10086952937
10086962092
10086968928
10086975275
10086982661
10086987543
10087002985
10087008906
10087017145
10087023127
10087031245
10087038996
10087046259
10087052912
10087058832
10087066034
10087071650
10087079584
10087085810
10087091852
10087098139
10087104792
10087110163
10087116816
10087121515
10087129938
10087136469
10087142206
10087148310
10087156122
10087160334
10087166803
10087174127
10087178888
10087184809
10087190973
10087196710
10087202875
10087210077
10087215448
10087219415
10087227167
10087231561
10087238641
10087244013
10087250848
10087256830
10087262445
10087268121
10087273920
10087280084
10087286127
10087291803
10087297357
10087303033
10087309503
10087314264
10087319818
10087327386
10087333246
10087339837
10087346002
10087352289
10087358514
10087365960
10087372125
10087378167
10087382623
10087392633
10087399041
10087405389
10087410882
10087417047
10087423700
10087427606
10087437371
10087443780
10087450494
10087456781
10087461785
10087468255
10087475701
10087482965
10087488946
10087495049
10087502557
10087510858
10087518792
10087526482
10087536370
10087541314
10087548943
10087559686
10087565423
10087572015
10087578789
10087585259
10087591668
10087598321
10087605950
10087613702
10087621331
10087627068
10087633538
10087638604
10087645196
10087653435
10087661004
10087665703
10087673394
10087679802
10087686211
10087692315
10087701409
10087708184
10087714592
10087721184
10087728691
10087735772
10087742119
10087748589
10087754937
10087763848
10087769829
10087776116
10087782891
10087789482
10087796013
10087801994
10087807976
10087816155
10087824089
10087831108
10087837883
10087844902
10087851616
10087858635
10087865288
10087872612
10087879021
10087885735
10087891777
10087899773
10087906670
10087914726
10087919121
10087927421
10087933342
10087939689
10087946464
10087950615
10087959404
10087967888
10087972160
10087980705
10087988456
10087995231
10088003898
10088013908
10088020561
10088026115
10088033989
10088041618
10088047477
10088057609
10088065422
10088074211
10088081108
10088090263
10088103935
10088110404
10088120414
10088126029
10088133354
10088139579
10088145011
10088149650
10088159110
10088165336
10088174186
10088181876
10088187797
10088194022
10088202689
10088209708
10088215507
10088223807
10088230521
10088236197
10088242423
10088250358
10088259696
10088264701
10088274100
10088280814
10088287284
10088295890
10088303641
10088309806
10088319449
10088326407
10088333487
10088338797
10088350211
10088357291
10088364798
10088372061
10088380301
10088389029
10088396536
10088402823
10088411429
10088417655
10088426199
10088433890
10088442374
10088447379
10088455191
10088463614
10088468130
10088476797
10088482657
10088489981
10088495047
10088501028
10088508719
10088513968
10088520865
10088527090
10088534048
10088542349
10088548697
10088553885
10088559744
10088568289
10088574148
10088581045
10088587637
10088593252
10088599295
10088606253
10088612783
10088618948
10088624441
10088630239
10088637564
10088642996
10088648672
10088655569
10088662527
10088668936
10088676504
10088682852
10088689626
10088694998
10088700247
10088705984
10088712759
10088720388
10088726980
10088732961
10088737722
10088743826
10088751028
10088757192
10088762685
10088767263
10088773611
10088779836
10088783987
10088791677
10088797292
10088802602
10088808645
10088813955
10088820180
10088826467
10088831106
10088836477
10088842214
10088848317
10088853139
10088858632
10088864736
10088872976
10088878774
10088885549
10088892019
10088897817
10088903676
10088910695
10088916738
10088922719
10088929372
10088935598
10088942433
10088949514
10088955678
10088962270
10088969045
10088975331
10088982900
10088988515
10088994985
10089001210
10089007985
10089014272
10089019093
10089025502
10089031667
10089038869
10089045644
10089052724
10089058949
10089065541
10089070607
10089078297
10089085194
10089091054
10089097462
10089105763
10089111561
10089117848
10089125050
10089131154
10089137623
10089145741
10089153370
10089159413
10089167653
10089178029
10089186512
10089195057
10089202443
10089209156
10089215321
10089224049
10089231129
10089239064
10089245594
10089253285
10089258229
10089266346
10089272877
10089278980
10089286122
10089293019
10089298206
10089305836
10089311390
10089317371
10089327503
10089334400
10089341358
10089346912
10089353138
10089359241
10089367298
10089374195
10089381214
10089386890
10089394520
10089402149
10089408192
10089414661
10089421924
10089428394
10089435840
10089441089
10089447071
10089454517
10089460926
10089468250
10089475025
10089481495
10089488208
10089496570
10089503894
10089510486
10089518177
10089524829
10089531665
10089539783
10089544666
10089553821
10089561450
10089567798
10089578296
10089585132
10089593738
10089602405
10089609546
10089615344
10089625171
10089633044
10089641345
10089648425
10089656238
10089663562
10089673267
10089679675
10089688037
10089695422
10089702075
10089709765
10089716907
10089723804
10089733264
10089740344
10089750903
10089758960
10089766833
10089776049
10089784350
10089793017
10089799487
10089806811
10089815417
10089822375
10089830249
10089838305
10089843432
10089855151
10089862658
10089869677
10089875170
10089883959
10089890978
10089900317
10089908251
10089916003
10089922900
10089931506
10089938036
10089946032
10089956713
10089964587
10089973132
10089981005
10089990893
10089998217
10090006518
10090012621
10090020006
10090025927
10090033068
10090038195
10090044787
10090051256
10090057421
10090064379
10090069872
10090075670
10090082445
10090088671
10090095629
10090102648
10090107409
10090114855
10090121080
10090127306
10090133409
10090139147
10090146044
10090150865
10090157335
10090163988
10090167833
10090177721
10090183214
10090189562
10090194566
10090199449
10090205187
10090211473
10090216966
10090223497
10090229112
10090235155
10090241441
10090245165
10090253465
10090259752
10090265306
10090270433
10090276842
10090281541
10090287340
10090293748
10090300889
10090305955
10090313096
10090319566
10090328294
10090335008
10090342698
10090347215
10090353380
10090358018
10090363511
10090371324
10090377610
10090383226
10090391587
10090395555
10090403001
10090409532
10090416246
10090421800
10090427720
10090433885
10090441758
10090449021
10090455125
10090461106
10090467881
10090473557
10090479417
10090484422
10090492051
10090499009
10090504441
10090510667
10090516404
10090522813
10090530564
10090537278
10090545029
10090551438
10090557236
10090563706
10090571641
10090578110
10090584885
10090592026
10090597886
10090604294
10090610276
10090616013
10090623215
10090631211
10090637742
10090644272
10090648301
10090658249
10090666672
10090672654
10090678086
10090685959
10090692368
10090698532
10090707138
10090712571
10090719467
10090725693
10090731064
10090737290
10090744980
10090750595
10090756882
10090763779
10090769821
10090776901
10090782456
10090790817
10090796555
10090803513
10090810593
10090816635
10090824570
10090833908
10090839218
10090847763
10090856735
10090863876
10090871323
10090876755
10090884384
10090891586
10090897262
10090904831
10090911789
10090919052
10090926315
10090933700
10090939926
10090946151
10090953537
10090958786
10090965744
10090973312
10090980758
10090987777
10090993209
10091000717
10091005416
10091015426
10091022384
10091029525
10091035446
10091040634
10091049301
10091056137
10091065109
10091073226
10091081954
10091086532
10091093307
10091099838
10091108749
10091114974
10091123763
10091129928
10091140121
10091147201
10091154586
10091162032
10091169112
10091176314
10091182845
10091190291
10091198226
10091206161
10091214217
10091222091
10091228560
10091237899
10091244307
10091252974
10091258834
10091266280
10091272994
10091281295
10091288009
10091293929
10091304732
10091313155
10091319930
10091326644
10091333968
10091340865
10091348189
10091357283
10091366133
10091373580
10091379195
10091387557
10091395796
10091401900
10091410994
10091418013
10091428145
10091434493
10091442854
10091448775
10091457075
10091462874
10091472090
10091478010
10091488386
10091495528
10091501082
10091511091
10091519819
10091528670
10091538496
10091548262
10091556685
10091564985
10091573835
10091581099
10091586653
10091593794
10091599043
10091607466
10091613081
10091618574
10091624067
10091630781
10091635420
10091642378
10091648786
10091656721
10091662397
10091669355
10091676313
10091682356
10091689314
10091694746
10091701460
10091709028
10091714521
10091720441
10091727522
10091733198
10091739545
10091745405
10091751752
10091758527
10091764509
10091769514
10091778242
10091785200
10091791242
10091799116
10091804059
10091810407
10091816022
10091822980
10091829572
10091835676
10091841718
10091848371
10091853498
10091861249
10091866681
10091872724
10091879438
10091886029
10091892926
10091900067
10091904645
10091911786
10091918927
10091925397
10091932294
10091938520
10091944135
10091950482
10091956525
10091963483
10091970258
10091979291
10091985944
10091992352
10091997540
10092004010
10092011395
10092019757
10092025922
10092033124
10092037885
10092044659
10092051801
10092057172
10092065900
10092076215
10092082074
10092089886
10092097699
10092102826
10092111615
10092117352
10092123395
10092129437
10092136395
10092142865
