9704862362
9704867916
9704872311
9704877804
9704882870
9704888302
9704892025
9704897518
9704903439
9704907833
9704913509
9704917843
9704922665
9704927486
9704933712
9704938229
9704942379
9704947750
9704952694
9704958675
9704963436
9704968441
9704972713
9704978145
9704984371
9704989864
9704995662
9705001949
9705007625
9705013607
9705018001
9705025936
9705031124
9705039852
9705045345
9705051571
9705061153
9705067501
9705072811
9705080074
9705087215
9705094112
9705099666
9705109249
9705115840
9705122310
9705128169
9705134151
9705141231
9705143978
9705153255
9705160945
9705166805
9705173213
9705179256
9705186275
9705192073
9705198787
9705206660
9705213252
9705221248
9705227840
9705235164
9705243587
9705251399
9705259517
9705264705
9705272822
9705278804
9705287532
9705296565
9705304011
9705311519
9705316768
9705326228
9705329768
9705340388
9705349116
9705356135
9705362239
9705369563
9705377742
9705384455
9705390315
9705396723
9705405940
9705412470
9705419306
9705425715
9705433161
9705439448
9705445063
9705454218
9705462641
9705469721
9705476435
9705483637
9705491450
9705497370
9705505305
9705513300
9705520075
9705526301
9705532709
9705540034
9705547663
9705556025
9705562861
9705570612
9705575556
9705584772
9705590143
9705598078
9705606867
9705614557
9705622065
9705629633
9705637201
9705641962
9705651056
9705659174
9705664667
9705672174
9705679743
9705686151
9705692560
9705700800
9705706598
9705713922
9705721247
9705728510
9705736627
9705742243
9705749079
9705757257
9705763971
9705771906
9705778558
9705785883
9705790704
9705797601
9705806696
9705813470
9705821039
9705827264
9705834466
9705840021
9705847772
9705856256
9705863885
9705870294
9705877191
9705884027
9705891900
9705899469
9705905511
9705914544
9705921991
9705927179
9705935296
9705940973
9705949395
9705956903
9705964654
9705971368
9705978997
9705985894
9705992547
9705998406
9706005670
9706014886
9706021722
9706029473
9706035577
9706043633
9706051873
9706060357
9706067681
9706076592
9706083489
9706090325
9706098382
9706106133
9706114312
9706123528
9706128350
9706138543
9706144646
9706153435
9706160088
9706166802
9706177239
9706184868
9706193047
9706198357
9706208733
9706215874
9706223198
9706231377
9706239495
9706247368
9706255486
9706261834
9706269158
9706276726
9706282524
9706293022
9706299187
9706306877
9706313896
9706322075
9706330132
9706336662
9706345879
9706353508
9706361748
9706369316
9706376518
9706384392
9706393303
9706402031
9706407585
9706414970
9706422661
9706429558
9706435051
9706444206
9706452019
9706460991
9706466789
9706474846
9706482902
9706488945
9706498893
9706504814
9706514396
9706521049
9706529167
9706536552
9706543998
9706551262
9706556877
9706566337
9706574089
9706580497
9706587760
9706595695
9706603019
9706610649
9706618278
9706626335
9706635002
9706638603
9706648490
9706658134
9706666557
9706677116
9706685539
9706692985
9706700919
9706710014
9706716239
9706724296
9706733329
9706741691
9706750175
9706756583
9706765677
9706772880
9706780997
9706789237
9706796866
9706806022
9706811881
9706819266
9706824759
9706835868
9706842704
9706850028
9706857901
9706863822
9706869437
9706876578
9706884818
9706892996
9706899954
9706908255
9706916068
9706922415
9706929190
9706936759
9706945303
9706950919
9706959708
9706966971
9706974051
9706981497
9706989188
9706997610
9707004752
9707011771
9707018362
9707027151
9707034964
9707041189
9707051016
9707057303
9707065726
9707073782
9707079214
9707090201
9707098379
9707105703
9707114920
9707120108
9707130240
9707138723
9707145193
9707157034
9707164724
9707171255
9707180410
9707188040
9707195303
9707203604
9707210134
9707218984
9707224844
9707233022
9707239614
9707248525
9707258047
9707265432
9707274526
9707283315
9707289663
9707298025
9707306875
9707313161
9707320669
9707328664
9707334646
9707341665
9707350454
9707355947
9707362844
9707369863
9707376394
9707384328
9707391103
9707396718
9707404531
9707410146
9707418020
9707422902
9707431874
9707440175
9707447011
9707453420
9707460805
9707464833
9707475942
9707483998
9707491567
9707497670
9707504140
9707511281
9707517934
9707525014
9707532948
9707538991
9707546803
9707554128
9707560170
9707568776
9707574391
9707582875
9707588551
9707595631
9707602956
9707608205
9707617909
9707625050
9707632008
9707638112
9707646107
9707653432
9707661427
9707668507
9707679555
9707687672
9707698842
9707704640
9707713429
9707720692
9707729237
9707740528
9707748280
9707753529
9707762806
9707768421
9707777027
9707782948
9707792774
9707798817
9707806568
9707813038
9707820240
9707827809
9707834828
9707842457
9707849232
9707855702
9707861378
9707868153
9707874744
9707881886
9707887501
9707897022
9707904163
9707911610
9707917530
9707926746
9707932361
9707940784
9707946400
9707956531
9707962330
9707972156
9707978016
9707986255
9707992176
9707999256
9708007007
9708014698
9708022266
9708027210
9708035755
9708043872
9708049671
9708056263
9708064563
9708071765
9708078540
9708086963
9708093494
9708097278
9708108508
9708112476
9708122058
9708129932
9708137134
9708142810
9708150440
9708158008
9708165515
9708171436
9708179370
9708187610
9708195789
9708203967
9708209643
9708218921
9708225452
9708234851
9708242297
9708249805
9708256701
9708264697
9708271106
9708279834
9708288379
9708294909
9708303393
9708309070
9708318591
9708329089
9708335315
9708344043
9708350817
9708359240
9708367236
9708374987
9708383044
9708391345
9708397570
9708406359
9708412219
9708420580
9708428637
9708435290
9708444689
9708454821
9708461169
9708470995
9708478442
9708486987
9708495348
9708500536
9708509997
9708520190
9708526049
9708534411
9708542101
9708549181
9708554735
9708563219
9708569689
9708576403
9708582445
9708588793
9708595080
9708600817
9708606981
9708613939
9708618700
9708626024
9708632189
9708639574
9708644274
9708651049
9708658007
9708663927
9708668749
9708676500
9708683153
9708688524
9708693651
9708701158
9708704210
9708713548
9708719652
9708726488
9708732530
9708739488
9708743639
9708750475
9708755785
9708762682
9708770799
9708776720
9708783067
9708787340
9708794847
9708799303
9708805528
9708811327
9708818285
9708822618
9708829393
9708835374
9708840318
9708846788
9708851732
9708858262
9708863023
9708868821
9708875108
9708880784
9708886216
9708892198
9708898057
9708903184
9708908860
9708914598
9708920152
9708927476
9708931993
9708938523
9708943101
9708950791
9708956407
9708962754
9708967637
9708973985
9708979234
9708985398
9708991075
9708997911
9709003770
9709010118
9709015305
9709021409
9709026475
9709032762
9709040818
9709047471
9709054185
9709059678
9709064133
9709072190
9709079331
9709085740
9709094956
9709100632
9709107407
9709111802
9709118943
9709125962
9709133103
9709139023
9709145676
9709150071
9709156724
9709162827
9709169541
9709176438
9709182786
9709189011
9709195298
9709201584
9709207932
9709213669
9709220078
9709226975
9709233384
9709239304
9709245713
9709251511
9709257859
9709263718
9709269944
9709278305
9709283188
9709290573
9709297775
9709303879
9709308762
9709316269
9709321213
9709329208
9709334152
9709341965
9709348923
9709354965
9709361618
9709367844
9709375961
9709381699
9709388779
9709394333
9709401291
9709406845
9709413071
9709420273
9709426071
9709433029
9709437546
9709444931
9709450851
9709457992
9709464279
9709470566
9709478988
9709483932
9709492111
9709496872
9709503708
9709510116
9709516098
9709523544
9709531295
9709537033
9709544601
9709550033
9709556991
9709561325
9709568099
9709576583
9709583236
9709588912
9709593917
9709601241
9709607040
9709613998
9709621505
9709627975
9709634139
9709640243
9709646896
9709651656
9709660140
9709666244
9709673934
9709679366
9709695602
9709700484
9709709884
9709718612
9709726119
9709731429
9709739120
9709746810
9709752059
9709759810
9709766097
9709772994
9709777694
9709785872
9709790816
9709796920
9709803267
9709809554
9709816085
9709824080
9709829146
9709835189
9709841780
9709848006
9709853255
9709862715
9709868697
9709875655
9709882735
9709889632
9709894881
9709903853
9709909895
9709916548
9709923934
9709932478
9709936018
9709945906
9709949446
9709959334
9709965559
9709972456
9709978377
9709986739
9709993758
9710000410
9710005659
9710013350
9710020735
9710027571
9710033491
9710043440
9710049971
9710057295
9710063093
9710070540
9710078291
9710085981
9710091719
9710098555
9710106855
9710115095
9710120955
9710128157
9710136579
9710141523
9710150007
9710157026
9710165571
9710172407
9710178999
9710184858
9710194135
9710200971
9710208906
9710214521
9710223554
9710229719
9710236616
9710243574
9710250044
9710254926
9710263227
9710270185
9710275373
9710281049
9710287824
9710293989
9710299299
9710304426
9710311262
9710317609
9710324506
9710331525
9710338605
9710345868
9710351118
9710357648
9710364911
9710375898
9710382917
9710389997
9710396894
9710403486
9710409528
9710416364
9710422284
9710428449
9710434796
9710440778
9710446332
9710452314
9710457685
9710462079
9710469709
9710475812
9710480573
9710487470
9710492475
9710498578
9710504865
9710509076
9710515302
9710521405
9710527142
9710533490
9710538983
9710544721
9710548871
9710556805
9710561139
9710568219
9710574200
9710579755
9710584454
9710591534
9710597699
9710602460
9710609357
9710614178
9710619305
9710625531
9710630841
9710636944
9710643719
9710649335
9710655743
9710659894
9710666974
9710671246
9710677166
9710683819
9710689557
9710696331
9710702801
9710708599
9710713787
9710719403
9710726117
9710732159
9710738446
9710744976
9710751019
9710757366
9710763592
9710769573
9710777447
9710783795
9710789959
9710795941
9710801983
9710807537
9710813885
9710818768
9710827068
9710834393
9710839764
9710845806
9710852642
9710860210
9710866375
9710874737
9710879497
9710887066
9710892193
9710899578
9710906048
9710912578
9710918987
9710927837
9710935589
9710941265
9710948833
9710957195
9710964031
9710969280
9710979473
9710986980
9710993206
9710998882
9711006145
9711012066
9711019634
9711027324
9711033611
9711040020
9711047649
9711052471
9711059917
9711066997
9711074809
9711083599
9711089397
9711098674
9711104839
9711113506
9711119182
9711126994
9711132488
9711138774
9711146343
9711151836
9711157451
9711163493
9711171123
9711176616
9711183208
9711192119
9711197002
9711204265
9711209880
9711216960
9711224223
9711230693
9711237956
9711244914
9711251140
9711256144
9711264384
9711270976
9711277018
9711281840
9711289897
9711295512
9711301616
9711306376
9711314433
9711320048
9711326091
9711330851
9711339335
9711345378
9711351481
9711356303
9711365214
9711370951
9711376444
9711383463
9711390605
9711395915
9711402995
9711408305
9711416239
9711422770
9711429301
9711438273
9711445353
9711452433
9711457682
9711464030
9711471964
9711477457
9711485392
9711493632
9711500284
9711506876
9711513956
9711520487
9711525675
9711534342
9711541971
9711551554
9711561869
9711569620
9711577616
9711585917
9711591532
9711599527
9711611979
9711622171
9711629435
9711635782
9711641764
9711650797
9711654215
9711663309
9711669351
9711677042
9711683634
9711689249
9711696512
9711702127
9711708292
9711716165
9711722696
9711730509
9711736734
9711743021
9711750101
9711756326
9711762796
9711770486
9711776834
9711784647
9711790872
9711797098
9711802835
9711811197
9711818826
9711825235
9711833169
9711839456
9711845804
9711853799
9711860757
9711866983
9711875039
9711882791
9711889016
9711897012
9711902932
9711909341
9711916787
9711925027
9711930642
9711938211
9711944009
9711950723
9711956033
9711962991
9711969033
9711974465
9711980264
9711987161
9711993203
9712000222
9712006509
9712012612
9712018655
9712023354
9712030923
9712037087
9712043313
9712049294
9712055642
9712060281
9712068337
9712073464
9712081582
9712086465
9712093911
9712099099
9712106545
9712112588
9712117776
9712124917
9712130532
9712136269
9712143105
9712148415
9712154946
9712161721
9712167519
9712173684
9712179238
9712184182
9712189736
9712196572
9712200722
9712207802
9712212685
9712220070
9712228981
9712235329
9712239540
9712246743
9712253395
9712259560
9712268654
9712273720
9712281349
9712288063
9712291847
9712300759
9712306496
9712311806
9712316994
9712322182
9712328102
9712332130
9712338234
9712344582
9712351357
9712356606
9712362404
9712366920
9712372902
9712377541
9712383522
9712391518
9712397011
9712402748
9712406837
9712412697
9712423500
9712427528
9712435829
9712442116
9712448219
9712452003
9712459388
9712464637
9712470131
9712476478
9712482948
9712488258
9712494056
9712499366
9712503456
9712510719
9712517311
9712523658
9712528358
9712535011
9712542091
9712546546
9712553871
9712559913
9712566627
9712571327
9712579933
9712585182
9712590858
9712597267
9712602882
9712610877
9712616554
9712623267
9712628516
9712635047
9712641761
9712646156
9712652869
9712660133
9712666541
9712673194
9712679481
9712687965
9712694495
9712701575
9712708777
9712713599
9712720374
9712726356
9712733436
9712740211
9712745460
9712751746
9712758887
9712764441
9712772132
9712780005
9712786719
9712792456
9712799475
9712807105
9712816016
9712823828
9712829627
9712837317
9712842444
9712850379
9712856665
9712863745
9712869727
9712876074
9712881934
9712889075
9712894751
9712901831
9712906775
9712915442
9712921607
9712928015
9712932593
9712939673
9712944251
9712951453
9712959204
9712965552
9712971289
9712977698
9712984900
9712989722
9712995520
9713002783
9713011084
9713017248
9713023779
9713030249
9713036596
9713043066
9713049658
9713056189
9713063574
9713068396
9713075903
9713080847
9713089148
9713094030
9713101355
9713106726
9713115332
9713120703
9713130712
9713137182
9713143957
9713150488
9713156774
9713162634
9713170812
9713174291
9713184240
9713189611
9713196325
9713201696
9713211096
9713217443
9713224279
9713229772
9713237402
9713245275
9713252050
9713257970
9713265173
9713272436
9713279638
9713287206
9713294286
9713300207
9713307897
9713315771
9713323034
9713331273
9713340124
9713345922
9713355138
9713360997
9713368749
9713376500
9713382909
9713390722
9713396215
9713404760
9713411596
9713420018
9713424901
9713433385
9713440282
9713446996
9713454625
9713462987
9713472997
9713480321
9713488011
9713498021
9713505528
9713512547
9713519933
9713529759
9713537694
9713543980
9713552037
9713559056
9713565099
9713572850
9713580357
9713587254
9713594701
9713600133
9713607091
9713613804
9713621007
9713628209
9713634434
9713639012
9713646519
9713651829
9713657628
9713662205
9713670201
9713676304
9713682225
9713686741
9713695530
9713700169
9713707371
9713712254
9713719517
9713726353
9713733250
9713738438
9713745274
9713750584
9713757481
9713763584
9713769871
9713776219
9713782383
9713789036
9713795262
9713800572
9713806858
9713813511
9713819798
9713826634
9713831150
9713839268
9713843845
9713850559
9713856113
9713861118
9713867893
9713874180
9713879063
9713885532
9713889805
9713896274
9713902988
9713908604
9713914951
9713920688
9713926609
9713932102
9713938022
9713943638
9713949070
9713955295
9713961765
9713966770
9713973240
9713978550
9713984836
9713990696
9713996128
9714005161
9714012119
9714022190
9714031955
9714041660
9714049716
9714056125
9714065830
9714071567
9714079013
9714088840
9714094882
9714100070
9714111118
9714118503
9714124912
9714130649
9714137607
9714142856
9714150668
9714157260
9714162509
9714169406
9714173617
9714181613
9714185886
9714192477
9714199740
9714205539
9714211398
9714216159
9714222995
9714229342
9714236667
9714241672
9714250094
9714255099
9714262790
9714268954
9714276645
9714283236
9714290255
9714297030
9714303439
9714310275
9714317050
9714323703
9714330294
9714336520
9714343234
9714349398
9714356173
9714362216
9714368685
9714374728
9714381503
9714387545
9714395113
9714400668
9714405856
9714413485
9714418734
9714426485
9714432833
9714438570
9714446139
9714453280
9714459383
9714466463
9714472628
9714479891
9714484713
9714491732
9714498690
9714504915
9714509859
9714516939
9714523470
9714529757
9714535860
9714542208
9714550264
9714555025
9714562044
9714569246
9714575106
9714582003
9714587374
9714593111
9714601412
9714609163
9714614168
9714622042
9714627046
9714634920
9714641329
9714648592
9714654573
9714661592
9714666536
9714673494
9714678255
9714685762
9714693392
9714702791
9714708162
9714716036
9714722078
9714730196
9714737520
9714744661
9714753145
9714758150
9714766695
9714770235
9714778902
9714783601
9714793184
9714799959
9714805330
9714812044
9714819368
9714824800
9714831697
9714839387
9714844270
9714852937
9714857820
9714865937
9714870698
9714878022
9714883210
9714892244
9714898042
9714907258
9714913240
9714919892
9714925141
9714934419
9714941621
9714947846
9714954194
9714960908
9714966157
9714974580
9714982331
9714989045
9714995271
9715001985
9715007356
9715015839
9715021088
9715030305
9715036103
9715043000
9715051301
9715058625
9715064423
9715072663
9715078400
9715086701
9715094453
9715100800
9715108369
9715116303
9715123932
9715132050
9715139863
9715145051
9715153473
9715161408
9715167145
9715174347
9715182831
9715189667
9715198212
9715203949
9715212616
9715217621
9715226960
9715233918
9715240570
9715246735
9715256012
9715259735
9715270844
9715277435
9715285370
9715291901
9715299042
9715305939
9715315582
9715321381
9715329926
9715336517
9715342682
9715349518
9715356354
9715364227
9715368683
9715375641
9715380279
9715389801
9715395782
9715401886
9715406586
9715419037
9715426239
9715432831
9715439361
9715444366
9715453155
9715460418
9715467437
9715473785
9715479705
9715485687
9715492462
9715497894
9715504852
9715511627
9715517669
9715524383
9715530609
9715535125
9715542266
9715548553
9715554778
9715561736
9715567535
9715573211
9715579559
9715584991
9715590850
9715601409
9715607024
9715613494
9715620330
9715625823
9715630340
9715636077
9715643035
9715648894
9715654510
9715660857
9715666412
9715670623
9715678130
9715683196
9715688689
9715695403
9715701385
9715705657
9715713592
9715718169
9715723845
9715730926
9715736907
9715742339
9715746550
9715754424
9715757171
9715765532
9715768401
9715776763
9715783233
9715789885
9715796111
9715801909
9715807219
9715813079
9715819060
9715824858
9715831206
9715835845
9715843596
9715848662
9715853789
9715857817
9715865630
9715870513
9715878142
9715882475
9715888518
9715894011
9715899443
9715904936
9715910429
9715918669
9715923613
9715931364
9715939604
9715945525
9715951445
9715962675
9715968901
9715978728
9715984343
9715993742
9716000822
9716008818
9716018339
9716024199
9716032255
9716038664
9716046293
9716052519
9716058256
9716067106
9716073454
9716078886
9716085417
9716091703
9716098234
9716104826
9716111235
9716118864
9716125212
9716131742
9716136564
9716144987
9716149809
9716156462
9716164091
9716170500
9716175321
9716183256
9716188078
9716195158
9716200163
9716208158
9716213163
9716221098
9716225858
9716234342
9716239591
9716245634
9716250455
9716259977
9716263517
9716272611
9716278776
9716285795
9716291898
9716297452
9716304288
9716309781
9716314908
9716322538
9716328519
9716335599
9716340116
9716347196
9716353544
9716360685
9716366727
9716373746
9716380094
9716386441
9716392911
9716399259
9716403775
9716410916
9716418973
9716425260
9716431668
9716438077
9716444425
9716450894
9716457120
9716463773
9716470365
9716475247
9716484036
9716489835
9716496304
9716501492
9716510831
9716517545
9716525479
9716531522
9716539456
9716546048
9716552274
9716560757
9716566800
9716573147
9716580899
9716587552
9716593655
9716601102
9716608304
9716616849
9716623623
9716631253
9716641629
9716647244
9716656155
9716665738
9716671048
9716678616
9716687893
9716695095
9716700466
9716709072
9716715664
9716722500
9716730679
9716736843
9716742703
9716751248
9716754727
9716764492
9716769741
9716778286
9716784268
9716791042
9716796414
9716805996
9716812099
9716818813
9716826809
9716832973
9716839626
9716846584
9716852444
9716863369
9716868679
9716877895
9716884670
9716891384
9716895290
9716906399
9716912563
9716921718
9716925503
9716934536
9716940273
9716949672
9716955532
9716963833
9716971706
9716979152
9716985012
9716991420
9717000026
9717005641
9717014247
9717022426
9717028224
9717036342
9717044521
9717052394
9717058559
9717065029
9717070583
9717076564
9717082729
9717089137
9717095363
9717100734
9717107143
9717113979
9717120326
9717126674
9717133510
9717139430
9717146144
9717152125
9717159145
9717164149
9717170680
9717175807
9717181483
9717190028
9717195460
9717201259
9717206752
9717212794
9717219935
9717226771
9717232081
9717239161
9717244288
9717250392
9717257045
9717263331
9717269496
9717276271
9717285060
9717292506
9717298976
9717305384
9717311366
9717317713
9717327052
9717333094
9717339564
9717344142
9717352076
9717357325
9717363307
9717369471
9717373683
9717380030
9717386378
9717391932
9717397669
9717403223
9717409266
9717416041
9717421229
9717427454
9717432398
9717438624
9717443812
9717450220
9717458277
9717464136
9717469569
9717475733
9717481165
9717485560
9717493372
9717498682
9717505701
9717511072
9717517725
9717525110
9717531092
9717537745
9717543787
9717549463
9717553980
9717560999
9717565393
9717573816
9717580103
9717585047
9717591028
9717597437
9717603113
9717609949
9717614771
9717621851
9717628565
9717637415
9717643335
9717648279
9717656763
9717662195
9717669519
9717674219
9717681055
9717687769
9717696253
9717702051
9717706751
9717715601
9717721094
9717726953
9717733911
9717741113
9717747095
9717753870
9717760583
9717766748
9717772607
9717777551
9717787134
9717793542
9717799035
9717805749
9717813257
9717819482
9717826684
9717831811
9717838830
9717846154
9717852502
9717858361
9717865930
9717872644
9717879419
9717884973
9717895593
9717903039
9717909143
9717917016
9717923852
9717930261
9717935205
9717942773
9717949426
9717956201
9717963952
9717970239
9717976159
9717982629
9717989343
9717996606
9718002831
9718007714
9718016320
9718021630
9718027673
9718034386
9718040368
9718044945
9718054467
9718060692
9718067834
9718072411
9718079552
9718086999
9718093163
9718099389
9718106041
9718112694
9718119286
9718125206
9718131798
9718138329
9718144982
9718151146
9718158348
9718164025
9718170006
9718176110
9718183068
9718190209
9718196373
9718201866
9718209374
9718215172
9718221520
9718229332
9718237267
9718243370
9718250572
9718256676
9718263451
9718271568
9718278526
9718285057
9718291710
9718298912
9718306236
9718314232
9718317589
9718325401
9718330284
9718338951
9718344627
9718352928
9718356346
9718365257
9718370567
9718376976
9718382469
9718390526
9718396080
9718404503
9718410484
9718418602
9718426353
9718436729
9718445518
9718451255
9718462364
9718469322
9718477623
9718485496
9718492942
9718499656
9718507347
9718518516
9718527854
9718534568
9718541831
9718548972
9718558128
9718567344
9718572410
9718582664
9718587852
9718598838
9718606284
9718612022
9718620872
9718626426
9718635520
9718641013
9718648643
9718655723
9718662376
9718667686
9718675742
9718682883
9718689841
9718697654
9718704062
9718712058
9718718345
9718724631
9718730796
9718738547
9718744040
9718751242
9718756675
9718762900
9718769797
9718774985
9718781943
9718788413
9718796530
9718803488
9718809592
9718815512
9718821555
9718827719
9718833823
9718840170
9718844809
9718852561
9718858725
9718864523
9718869101
9718876914
9718881552
9718888571
9718895529
9718901450
9718906027
9718913351
9718917929
9718925192
9718930746
9718937704
9718943320
9718949606
9718955099
9718959921
9718965109
9718971457
9718980429
9718985007
9718991110
9718997763
9719002890
9719007712
9719014242
9719019919
9719026388
9719032065
9719037497
9719043783
9719049398
9719056051
9719061789
9719069357
9719075094
9719080770
9719085958
9719090231
9719096579
9719103048
9719109457
9719115255
9719120626
9719126974
9719133505
9719139608
9719144247
9719154562
9719161276
9719168417
9719174642
9719179830
9719188802
9719195699
9719201070
9719207418
9719213949
9719218343
9719225179
9719232564
9719238485
9719245321
9719251119
9719258626
9719263753
9719269308
9719276449
9719281576
9719287191
9719295125
9719301961
9719307577
9719313802
9719319967
9719326803
9719331441
9719337972
9719344991
9719352193
9719358541
9719364888
9719371236
9719376973
9719383443
9719392476
9719398397
9719404683
9719412129
9719417867
9719423421
9719431111
9719436971
9719444051
9719449727
9719456868
9719462178
9719469319
9719474019
9719481160
9719487935
9719494893
9719499776
9719506856
9719512410
9719519429
9719526753
9719533040
9719540730
9719547139
9719554646
9719559346
9719566792
9719572774
9719579732
9719587544
9719594014
9719599690
9719604390
9719611470
9719618062
9719624165
9719631672
9719638752
9719643025
9719650776
9719657490
9719663777
9719670491
9719677327
9719685139
9719691304
9719696675
9719702839
9719709797
9719714863
9719721821
9719733540
9719739033
9719746723
9719753803
9719760578
9719767231
9719774555
9719783405
9719790180
9719797810
9719803364
9719811115
9719817158
9719824177
9719831501
9719838032
9719844379
9719850788
9719857990
9719862751
9719869160
9719875568
9719883259
9719889240
9719895405
9719900226
9719908710
9719914448
9719920551
9719927814
9719935444
9719941730
9719947712
9719953876
9719961017
9719966449
9719974201
9719980304
9719988239
9719994648
9720002582
9720009052
9720015094
9720022357
9720030475
9720036273
9720044025
9720049457
9720057330
9720063617
9720071857
9720078876
9720085101
9720091815
9720099567
9720105792
9720113605
9720120380
9720126605
9720133868
9720140155
9720148395
9720154986
9720161090
9720170428
9720174396
9720184710
9720190692
9720198138
9720207110
9720214435
9720220416
9720229144
9720234942
9720243731
9720249652
9720257281
9720265338
9720273944
9720279803
9720287493
9720293292
9720301409
9720308978
9720317095
9720325701
9720333514
9720342364
9720349078
9720354998
9720364031
9720371050
9720377581
9720385088
9720393694
9720400286
9720408160
9720413409
9720422076
9720428484
9720436114
9720446734
9720453264
9720459795
9720466204
9720473955
9720480608
9720488238
9720494707
9720501238
9720506914
9720513262
9720519426
9720525774
9720531511
9720537737
9720545916
9720550554
9720557817
9720564104
9720570024
9720576555
9720582476
9720589312
9720595354
9720599626
9720607439
9720614519
9720619890
9720626055
9720632341
9720638628
9720644060
9720649858
9720655779
9720661211
9720665605
9720672929
9720677385
9720683855
9720687883
9720696306
9720702104
9720707109
9720713274
9720719804
9720724382
9720730669
9720737077
9720742631
9720748430
9720754167
9720759843
9720765520
9720771562
9720777727
9720783159
9720788957
9720794511
9720800920
9720805864
9720811845
9720819352
9720823869
9720830339
9720836503
9720842241
9720848527
9720852800
9720861650
9720866777
9720874101
9720879716
9720886003
9720891069
9720897416
9720905473
9720909989
9720916520
9720920854
9720929032
9720934464
9720940812
9720947892
9720952226
9720960465
9720965775
9720973100
9720978837
9720985612
9720990922
9720998490
9721007340
9721012772
9721020890
9721027421
9721035660
9721039506
9721051652
9721057938
9721064896
9721070450
9721077469
9721084244
9721090897
9721098893
9721105668
9721113053
9721117692
9721124711
9721132889
9721139420
9721146195
9721152604
9721157364
9721164444
9721169876
9721177079
9721184830
9721189652
9721196610
9721203568
9721211258
9721216751
9721223892
9721229935
9721235428
9721241837
9721249100
9721254532
9721261612
9721266678
9721274246
9721280106
9721287369
9721294144
9721300430
9721306900
9721313492
9721319717
9721326309
9721333267
9721340225
9721347610
9721352188
9721361832
9721367691
9721375015
9721379715
9721387710
9721393265
9721400406
9721406570
9721413772
9721419571
9721425064
9721431289
9721438491
9721444778
9721451980
9721459854
9721466384
9721472488
9721477981
9721486221
9721491592
9721498977
9721505386
9721512405
9721519241
9721525405
9721530227
9721537429
9721544082
9721551833
9721558730
9721564956
9721572341
9721578445
9721586562
9721592666
9721599929
9721607680
9721612441
9721620132
9721626418
9721634902
9721643264
9721649001
9721659804
9721665481
9721673903
9721680129
9721688674
9721696181
9721703505
9721710891
9721719680
9721725783
9721733718
9721740249
9721747390
9721754897
9721761428
9721769789
9721775222
9721782057
9721788649
9721795485
9721801955
9721806227
9721813613
9721823561
9721828749
9721834975
9721841872
9721847670
9721854384
9721861281
9721867812
9721875319
9721880751
9721887038
9721893568
9721899916
9721906996
9721913954
9721921217
9721928480
9721936415
9721943007
9721949965
9721956312
9721963270
9721970961
9721976698
9721985121
9721992506
9721998793
9722005812
9722011549
9722019484
9722025343
9722033278
9722040419
9722048658
9722054335
9722062880
9722070814
9722077284
9722086744
9722089918
9722101576
9722108473
9722114271
9722120069
9722125929
9722131178
9722135694
9722144605
9722151075
9722157850
9722162306
9722169019
9722174207
9722180677
9722188429
9722195264
9722200941
9722205335
9722212354
9722219190
9722224317
9722229993
9722236951
9722243665
9722249647
9722255323
9722261365
9722268384
9722273755
9722286023
9722292676
9722299268
9722307203
9722313733
9722319349
9722325696
9722333326
9722339551
9722346021
9722353406
9722360303
9722365247
9722370740
9722377393
9722382947
9722389295
9722395276
9722400830
9722406079
9722411756
9722418042
9722423535
9722430860
9722436658
9722442944
9722448071
9722454358
9722459790
9722467542
9722473279
9722477612
9722484814
9722489087
9722495496
9722502393
9722507886
9722512219
9722519360
9722525525
9722530713
9722535657
9722542676
9722550122
9722556653
9722563061
9722568921
9722575268
9722581189
9722587658
9722592114
9722598889
9722604687
9722611462
9722615857
9722623608
9722628613
9722635754
9722640698
9722647839
9722654187
9722659436
9722665417
9722672436
9722678906
9722684582
9722691906
9722698986
9722705883
9722712841
9722719067
9722723828
9722732494
9722737438
9722746716
9722749951
9722759289
9722764599
9722772289
9722778942
9722784618
9722791027
9722798107
9722804394
9722810070
9722817638
9722823437
9722830089
9722837414
9722843029
9722850170
9722855358
9722862621
9722867992
9722875316
9722881420
9722889538
9722898754
9722904003
9722911327
9722918346
9722924755
9722932018
9722938488
9722943431
9722954967
9722961742
9722968151
9722974498
9722981334
9722987865
9722994396
9723000560
9723007091
9723013500
9723020580
9723026744
9723033153
9723039256
9723044200
9723053844
9723060497
9723066295
9723071788
9723079051
9723086620
9723092906
9723099437
9723105662
9723111827
9723118297
9723124950
9723129832
9723136729
9723143321
9723150767
9723155650
9723164744
9723171641
9723177196
9723183848
9723189464
9723197398
9723203013
9723209910
9723215525
9723220652
9723228343
9723234019
9723241282
9723247203
9723254649
9723261546
9723267588
9723275340
9723281443
9723288951
9723295054
9723301707
9723310923
9723316172
9723323741
9723330699
9723337718
9723344492
9723351695
9723358469
9723363963
9723372569
9723378733
9723384653
9723392161
9723398081
9723406565
9723415293
9723420054
9723428232
9723435740
9723443064
9723450937
9723458689
9723466562
9723472117
9723479075
9723486399
9723493296
9723501108
9723508066
9723514963
9723524546
9723534555
9723541147
9723547800
9723556589
9723564524
9723571665
9723580881
9723589853
9723597299
9723605356
9723609995
9723618662
9723625986
9723633859
9723640878
9723648081
9723656564
9723664194
9723671091
9723676462
9723683786
9723691904
9723698923
9723706735
9723714426
9723720224
9723728464
9723734445
9723741403
9723750009
9723755563
9723763986
9723771005
9723777780
9723785837
9723791330
9723797433
9723805185
9723812021
9723819223
9723826486
9723832833
9723839242
9723845712
9723851022
9723857370
9723864389
9723868966
9723876412
9723882882
9723888864
9723893624
9723901742
9723906991
9723912789
9723919015
9723926400
9723932259
9723939156
9723944894
9723951669
9723957894
9723964059
9723970162
9723976266
9723980721
9723987679
9723994149
9724000314
9724007149
9724013436
9724019479
9724025765
9724032906
9724037545
9724044198
9724050912
9724058236
9724064278
9724069283
9724074959
9724081002
9724086678
9724092293
9724100899
9724103890
9724111397
9724117318
9724123421
9724129403
9724135140
9724141915
9724146736
9724154732
9724161019
9724166756
9724173714
9724180672
9724187203
9724194405
9724199532
9724206185
9724213692
9724219490
9724226814
9724234139
9724242989
9724248299
9724254768
9724261910
9724267342
9724274239
9724280586
9724286446
9724293587
9724298103
9724304939
9724311836
9724317573
9724321968
9724330208
9724336433
9724343147
9724348335
9724354988
9724360359
9724367012
9724374641
9724380928
9724387459
9724392280
9724400337
9724405159
9724412483
9724417183
9724424751
9724431587
9724439827
9724445686
9724451973
9724456977
9724464729
9724473213
9724478950
9724485786
9724492988
9724498908
9724504341
9724511299
9724516853
9724523567
9724530830
9724535590
9724544502
9724551154
9724557624
9724564521
9724569587
9724576972
9724583442
9724589545
9724595954
9724603644
9724606879
9724615241
9724622565
9724630195
9724635993
9724643134
9724649055
9724654609
9724661994
9724667548
9724673591
9724682258
9724688605
9724695014
9724701178
9724707587
9724714240
9724721198
9724727362
9724732306
9724741034
9724747077
9724754096
9724758612
9724765509
9724773383
9724778144
9724786200
9724793402
9724799384
9724806281
9724813727
9724820380
9724830023
9724837775
9724844000
9724850043
9724858221
9724864447
9724871893
9724877692
9724886298
9724892279
9724898688
9724906439
9724911139
9724917670
9724924139
9724931525
9724938605
9724944769
9724952276
9724957953
9724964239
9724971502
9724978155
9724985418
9724989996
9724997198
9725002691
9725009893
9725015814
9725023870
9725030157
9725037298
9725043829
9725050360
9725057135
9725064337
9725070806
9725077825
9725085455
9725092413
9725098821
9725105840
9725112005
9725119146
9725125494
9725132635
9725140081
9725146795
9725153997
9725161077
9725168218
9725175420
9725182256
9725189397
9725196050
9725201299
9725209600
9725216924
9725224493
9725230352
9725239324
9725245305
9725253728
9725261480
9725268133
9725276067
9725283513
9725289190
9725295232
9725303899
9725311345
9725318059
9725325505
9725334050
9725341252
9725347966
9725353765
9725363103
9725366948
9725377812
9725382207
9725393559
9725399480
9725406804
9725412663
9725421208
9725429753
9725439458
9725445989
9725454533
9725463200
9725468388
9725477910
9725483769
9725494817
9725503422
9725510686
9725514714
9725530339
9725537053
9725544499
9725551396
9725558598
9725567448
9725572697
9725579838
9725585026
9725592411
9725598759
9725604985
9725611332
9725617558
9725624699
9725629460
9725635868
9725642033
9725648991
9725655278
9725661442
9725666081
9725674320
9725679081
9725686650
9725691715
9725697514
9725705815
9725712773
9725717899
9725724796
9725731022
9725737431
9725741337
9725748966
9725754826
9725760624
9725766483
9725772465
9725777775
9725783695
9725789188
9725796329
9725801334
9725807499
9725813969
9725819034
9725825321
9725831730
9725837528
9725843082
9725848697
9725854923
9725859134
9725866520
9725872562
9725878849
9725884891
9725890934
9725897525
9725903629
9725909427
9725915287
9725921024
9725927921
9725933170
9725938480
9725945499
9725950016
9725956913
9725963199
9725968387
9725975833
9725982242
9725989505
9725994205
9726001834
9726006900
9726015140
9726018131
9726026492
9726032169
9726038577
9726044070
9726050601
9726055911
9726064456
9726070560
9726076846
9726083133
9726088321
9726095828
9726102847
9726110477
9726117679
9726127078
9726133365
9726141360
9726148318
9726153689
9726162356
9726168887
9726175479
9726183291
9726189090
9726193789
9726200991
9726205508
9726213748
9726216922
9726226260
9726232852
9726238101
9726243899
9726250552
9726255740
9726262332
9726271609
9726277896
9726285220
9726289858
9726296572
9726301089
9726308230
9726314639
9726322268
9726327883
9726334414
9726340090
9726345278
9726351992
9726357119
9726362734
9726371096
9726375368
9726382021
9726388430
9726394350
9726400759
9726406863
9726414309
9726421816
9726428347
9726433779
9726440676
9726447146
9726453188
9726461672
9726468142
9726474489
9726479189
9726485903
9726491030
9726499025
9726507875
9726513247
9726520510
9726523439
9726532961
9726538149
9726545168
9726551638
9726558596
9726563539
9726570192
9726576845
9726582765
9726586916
9726593508
9726601564
9726609865
9726618227
9726628053
9726637453
9726646120
9726652589
9726660829
9726667299
9726673280
9726680116
9726687379
9726694154
9726701417
9726708559
9726715455
9726722963
9726729860
9726736452
9726743165
9726749147
9726755800
9726763307
9726770448
9726776857
9726784181
9726790773
9726796388
9726804139
9726810426
9726815980
9726822816
9726830018
9726834596
9726842347
9726848207
9726855470
9726861939
9726867555
9726873658
9726880982
9726886842
9726894837
9726901124
9726908448
9726914369
9726921693
9726928834
9726934571
9726940736
9726948609
9726954713
9726962586
9726970948
9726977967
9726983277
9726991029
9726998231
9727005433
9727010316
9727018189
9727027405
9727032776
9727039307
9727047242
9727053345
9727061219
9727068421
9727073670
9727079895
9727087952
9727094239
9727102112
9727106812
9727114869
9727121399
9727129883
9727136109
9727144715
9727151062
9727160157
9727167420
9727174866
9727183045
9727190247
9727196655
9727206055
9727212158
9727218994
9727225952
9727232117
9727239075
9727244446
9727249573
9727257507
9727264160
9727269531
9727274963
9727281860
9727289551
9727295898
9727303162
9727309448
9727315674
9727320495
9727327881
9727334106
9727340820
9727347595
9727353576
9727359741
9727366821
9727374328
9727380676
9727386108
9727395630
9727403869
9727409668
9727417419
9727422302
9727428711
9727434814
9727441650
9727447631
9727453369
9727459777
9727464050
9727471984
9727476135
9727483276
9727488098
9727495300
9727501281
9727506286
9727512939
9727518005
9727524108
9727530517
9727537963
9727543578
9727549499
9727553710
9727560424
9727564880
9727572570
9727576965
9727583678
9727590514
9727595397
9727602111
9727606994
9727612487
9727618835
9727625548
9727631164
9727636840
9727642516
9727647826
9727653563
9727659789
9727664367
9727672484
9727677306
9727684264
9727690856
9727695983
9727701598
9727708129
9727715148
9727721190
9727726866
9727732604
9727738646
9727744384
9727750731
9727757628
9727764342
9727771239
9727775694
9727782836
9727790099
9727796019
9727801329
9727809508
9727815917
9727822813
9727828734
9727835020
9727842528
9727849059
9727855406
9727861388
9727868712
9727874327
9727881163
9727885680
9727893431
9727901305
9727907591
9727914366
9727919188
9727926634
9727932188
9727940794
9727947935
9727955748
9727962462
9727969175
9727977171
9727984190
9727988829
9727996885
9728005735
9728015867
9728021482
9728028624
9728035765
9728041990
9728047666
9728054746
9728061766
9728067198
9728074400
9728080442
9728087522
9728093992
9728100340
9728106992
9728113523
9728120176
9728126707
9728133421
9728139951
9728145506
9728152097
9728159971
9728164854
9728171995
9728178648
9728184751
9728191831
9728197935
9728202695
9728209531
9728216916
9728223081
9728230161
9728235776
9728241636
9728249448
9728256528
9728262327
9728268247
9728275876
9728282407
9728287900
9728294980
9728300534
9728307492
9728314328
9728321164
9728327817
9728333676
9728340268
9728347592
9728352292
9728359555
9728364194
9728373471
9728379270
9728386106
9728394223
9728400998
9728406735
9728415219
9728422177
9728427731
9728433957
9728441708
9728447507
9728454892
9728462033
9728469113
9728476254
9728481686
9728490170
9728495114
9728502927
9728509579
9728518368
9728524838
9728534726
9728541195
9728548886
9728556027
9728566159
9728570553
9728582089
9728590207
9728599301
9728604123
9728615780
9728622006
9728631649
9728640255
9728652767
9728659847
9728667660
9728673886
9728680966
9728689572
9728695248
9728702633
9728709774
9728717892
9728723629
9728730831
9728737728
9728744625
9728752132
9728757565
9728765316
9728773556
9728778927
9728786556
9728793636
9728800472
9728807552
9728815121
9728820492
9728828182
9728835872
9728843075
9728850033
9728855648
9728862972
9728870968
9728878536
9728885677
9728892574
9728898189
9728904903
9728911800
9728918819
9728925228
9728931331
9728938777
9728943477
9728949825
9728954524
9728963191
9728969173
9728975154
9728979732
9728987666
9728994197
9728999690
9729005245
9729011165
9729018672
9729025264
9729030818
9729037593
9729042293
9729049312
9729055598
9729061824
9729068843
9729073482
9729079890
9729086177
9729092586
9729098811
9729105098
9729109859
9729119380
9729124568
9729132136
9729137752
9729143550
9729148433
9729154658
9729160884
9729166743
9729173945
9729179072
9729184260
9729190547
9729196711
9729202937
9729208674
9729214411
9729218623
9729226557
9729231013
9729238764
9729244441
9729251338
9729258845
9729265376
9729271479
9729276057
9729283015
9729288691
9729296809
9729301936
9729309382
9729314021
9729321894
9729327815
9729332270
9729339411
9729343867
9729352106
9729356562
9729364313
9729370295
9729375361
9729382014
9729388361
9729394282
9729400202
9729406122
9729411982
9729418513
9729425043
9729430720
9729436701
9729443720
9729449091
9729455500
9729459833
9729467341
9729473139
9729480280
9729486567
9729493830
9729500605
9729507135
9729512201
9729519525
9729526728
9729533258
9729538690
9729545099
9729551386
9729557794
9729564020
9729570429
9729577570
9729584162
9729590448
9729597040
9729603265
9729609796
9729616144
9729622675
9729630365
9729635309
9729643732
9729649591
9729655939
9729660821
9729668390
9729673456
9729681818
9729687738
9729694818
9729701959
9729708673
9729714593
9729721429
9729728509
9729733270
9729740106
9729746087
9729753778
9729759454
9729766595
9729773675
9729779840
9729785638
9729792108
9729799432
9729804315
9729811761
9729819512
9729825982
9729831109
9729840570
9729846734
9729854974
9729861993
9729869927
9729880609
9729885858
9729894219
9729900689
9729908379
9729914788
9729924065
9729930596
9729935479
9729944512
9729950921
9729957024
9729963738
9729969903
9729976250
9729982598
9729987359
9729996453
9730001336
9730008965
9730012078
9730021172
9730026848
9730033684
9730039422
9730046868
9730053338
9730059807
9730066338
9730072808
9730078606
9730085137
9730093071
9730098198
9730105217
9730112358
9730119500
9730127373
9730134392
9730141777
9730148430
9730153801
9730161064
9730168144
9730175774
9730181267
9730189995
9730195427
9730202873
9730208061
9730216057
9730223198
9730229790
9730236870
9730244560
9730249870
9730257866
9730263176
9730270866
9730278435
9730285210
9730293571
9730302238
9730308708
9730317985
9730329521
9730335197
9730344536
9730351982
9730359306
9730369255
9730376579
9730384208
9730391594
9730398918
9730407096
9730413322
9730423088
9730429740
9730439384
9730445732
9730454826
9730461173
9730469291
9730476859
9730486686
9730494376
9730502433
9730509696
9730517143
9730525321
9730531608
9730540946
9730547233
9730556815
9730564262
9730576652
9730583304
9730593986
9730600760
9730609611
9730616385
9730625358
9730631278
9730640738
9730646048
9730654044
9730659232
9730668265
9730671500
9730679557
9730687491
9730694388
9730700492
9730707511
9730712394
9730719351
9730726432
9730732596
9730737967
9730743827
9730751395
9730756278
9730765372
9730770682
9730776724
9730781607
9730789847
9730792899
9730801627
9730807303
9730813162
9730820120
9730825491
9730830801
9730838065
9730843375
9730850333
9730855948
9730862845
9730868033
9730874563
9730880545
9730886038
9730893301
9730899222
9730904593
9730908987
9730916556
9730922354
9730927298
9730933279
9730939749
9730944876
9730951162
9730957144
9730962698
9730968802
9730974356
9730980764
9730986929
9730992361
9730996572
9731003958
9731010366
9731016836
9731022329
9731028555
9731033132
9731039541
9731045706
9731051565
9731056936
9731061147
9731068960
9731074514
9731080801
9731085684
9731093252
9731098806
9731106008
9731112417
9731117605
9731122976
9731129873
9731136709
9731142568
9731149160
9731155141
9731160451
9731166860
9731173269
9731180044
9731188039
9731194204
9731204824
9731212087
9731217092
9731224660
9731229970
9731238942
9731246084
9731252248
9731259877
9731265981
9731273244
9731278981
9731286123
9731291921
9731298635
9731306081
9731311635
9731318959
9731325429
9731331105
9731337453
9731344899
9731351125
9731358449
9731365651
9731372182
9731378285
9731384877
9731391774
9731398366
9731404042
9731410512
9731417165
9731423695
9731429982
9731436452
9731442738
9731449269
9731457204
9731462147
9731469838
9731475575
9731481801
9731488392
9731494496
9731501942
9731507435
9731514515
9731520131
9731526539
9731533864
9731540699
9731547169
9731554677
9731561207
9731567799
9731574391
9731579579
9731586110
9731592823
9731601063
9731606983
9731611622
9731619068
9731626454
9731632618
9731637440
9731644459
9731649281
9731658253
9731663441
9731670826
9731676319
9731683338
9731689564
9731696278
9731703297
9731708180
9731716419
9731721119
9731729542
9731735828
9731742298
9731749500
9731757435
9731763172
9731771168
9731775684
9731783436
9731791553
9731798939
9731809681
9731813282
9731824024
9731830066
9731839344
9731846119
9731852283
9731858936
9731866321
9731875171
9731881824
9731888904
9731896167
9731902271
9731911243
9731918689
9731925647
9731933094
9731940051
9731947193
9731952564
9731960071
9731967151
9731974414
9731981494
9731989124
9731994617
9732002124
9732009143
9732014941
9732021960
9732028918
9732036060
9732043201
9732050159
9732055164
9732063098
9732069141
9732077075
9732085193
9732092944
9732101489
9732107837
9732115344
9732124804
9732129565
9732139148
9732148242
9732155383
9732163134
9732170581
9732179736
9732187060
9732194201
9732202197
9732208422
9732217944
9732224291
9732232226
9732240771
9732246264
9732255541
9732261706
9732271288
9732279467
9732286669
9732295153
9732302416
9732311572
9732318713
9732322985
9732333056
9732339220
9732348803
9732354845
9732362414
9732369311
9732376208
9732382311
9732387926
9732393419
9732400622
9732405138
9732412584
9732419481
9732424547
9732427477
9732436144
9732442736
9732449511
9732454577
9732460924
9732466295
9732472643
9732478136
9732484606
9732491320
9732496080
9732503282
9732510912
9732518846
9732528246
9732534044
9732541490
9732549425
9732555040
9732562914
9732568529
9732575609
9732581773
9732588548
9732594225
9732600755
9732607286
9732611742
9732618028
9732624254
9732631822
9732637193
9732642870
9732648973
9732653307
9732660570
9732665269
9732672533
9732678270
9732687120
9732691514
9732699083
9732704271
9732710130
9732716783
9732722581
9732728563
9732732835
9732739549
9732743760
9732751451
9732757310
9732763963
9732766710
9732775315
9732781297
9732786729
9732793626
9732798936
9732806321
9732812120
9732817002
9732822801
9732829392
9732835435
9732841233
9732847459
9732855638
9732860337
9732867356
9732871995
9732879075
9732884873
9732891404
9732896592
9732904588
9732909592
9732915696
9732923203
9732929917
9732935593
9732942612
9732949753
9732955796
9732963120
9732968980
9732975327
9732981431
9732987778
9732993149
9732999558
9733006028
9733012620
9733018845
9733025315
9733032151
9733038743
9733045578
9733050461
9733059067
9733064072
9733071701
9733077500
9733083542
9733090988
9733099167
9733105637
9733113571
9733119553
9733127548
9733134995
9733140488
9733147690
9733155991
9733162399
9733168015
9733176682
9733181503
9733189621
9733195664
9733201767
9733209396
9733215012
9733220505
9733228073
9733233871
9733240890
9733246872
9733252304
9733258469
9733265610
9733271347
9733278366
9733283249
9733290329
9733298019
9733304306
9733310226
9733316696
9733323410
9733329757
9733336227
9733342880
9733347885
9733354171
9733360580
9733366867
9733373581
9733379989
9733386215
9733392746
9733401168
9733406417
9733414352
9733419845
9733426010
9733433456
9733439742
9733450302
9733459030
9733464462
9733470931
9733477218
9733483688
9733489913
9733496383
9733503524
9733510909
9733517074
9733523544
9733529830
9733535262
9733542342
9733549911
9733556869
9733562179
9733569869
9733575912
9733584640
9733591659
9733598433
9733605758
9733612472
9733619857
9733626693
9733632003
9733639144
9733646346
9733653487
9733660750
9733668868
9733674300
9733681868
9733688887
9733695662
9733701155
9733709517
9733718367
9733728133
9733734419
9733744368
9733750899
9733762435
9733769393
9733776961
9733786421
9733797469
9733803023
9733814375
9733818159
9733828047
9733836653
9733843489
9733850081
9733859175
9733866255
9733873579
9733882246
9733888777
9733894942
9733903425
9733910383
9733916609
9733924849
9733931135
9733935103
9733945784
9733949873
9733960432
9733966597
9733977156
9733984785
9733991255
9733994734
9734005659
9734012251
9734019941
9734026289
9734034712
9734043928
9734049909
9734058332
9734066755
9734071882
9734080061
9734087568
9734094160
9734100874
9734108015
9734114179
9734118269
9734125227
9734131757
9734137983
9734144575
9734149091
9734155805
9734161909
9734168195
9734174604
9734180524
9734187360
9734193464
9734198041
9734204999
9734212385
9734217756
9734222822
9734230207
9734235700
9734243146
9734249860
9734255353
9734261457
9734266889
9734274396
9734279645
9734287458
9734294355
9734299604
9734304914
9734312543
9734317304
9734323468
9734329938
9734337384
9734341535
9734348187
9734352399
9734359784
9734364118
9734371381
9734378034
9734383038
9734389264
9734395429
9734400983
9734405927
9734411359
9734417828
9734426190
9734432477
9734437970
9734444379
9734450299
9734456830
9734462872
9734468793
9734477093
9734482892
9734489117
9734496319
9734500531
9734507916
9734514081
9734518963
9734525311
9734532086
9734537457
9734544293
9734549359
9734555767
9734562359
9734568890
9734573956
9734580731
9734587750
9734593731
9734599896
9734605755
9734611370
9734615887
9734624188
9734629498
9734635235
9734641827
9734646954
9734653484
9734660442
9734666302
9734673504
9734678204
9734685406
9734691753
9734699017
9734706158
9734712444
9734718548
9734724895
9734731670
9734738018
9734743511
9734750286
9734757671
9734764446
9734770855
9734775493
9734782757
9734787517
9734795940
9734801433
9734810528
9734815593
9734822918
9734828960
9734836284
9734840923
9734849651
9734856243
9734862590
9734869060
9734875469
9734880596
9734887065
9734893657
9734900066
9734906230
9734912578
9734919170
9734925701
9734931926
9734938701
9734944866
9734951335
9734957561
9734964397
9734970683
9734975749
9734983928
9734989360
9734996745
9735002544
9735009624
9735016277
9735023296
9735031413
9735038982
9735045634
9735055888
9735062724
9735074565
9735079692
9735086894
9735093852
9735101481
9735106608
9735116008
9735121135
9735129008
9735132731
9735141276
9735146037
9735153727
9735161479
9735167094
9735174540
9735180094
9735185771
9735193705
9735199137
9735206340
9735213603
9735219096
9735225260
9735232218
9735239054
9735245402
9735251078
9735257670
9735264994
9735271464
9735278361
9735285136
9735291239
9735296061
9735304972
9735310709
9735317973
9735322977
9735332499
9735338419
9735347513
9735351054
9735360819
9735367533
9735373759
9735382242
9735388651
9735395548
9735401896
9735408487
9735415201
9735422953
9735428995
9735435221
9735443644
9735449503
9735456278
9735461466
9735469461
9735477701
9735485575
9735492472
9735500528
9735506876
9735516153
9735522806
9735532022
9735538553
9735548746
9735555032
9735562662
9735571146
9735578043
9735587259
9735592813
9735602151
9735610452
9735619669
9735626688
9735634012
9735641458
9735649393
9735655435
9735665323
9735672037
9735681741
9735687784
9735696512
9735702432
9735710672
9735718362
9735725076
9735730813
9735740762
9735749246
9735759072
9735765664
9735776101
9735785195
9735792398
9735798867
9735810708
9735817178
9735825784
9735832192
9735838906
9735845010
9735851724
9735859658
9735866738
9735872842
9735878762
9735884927
9735891702
9735898537
9735905740
9735911538
9735917031
9735923684
9735929787
9735934304
9735942361
9735948525
9735954995
9735961404
9735967385
9735973611
9735978493
9735986672
9735993691
9736000710
9736006997
9736012124
9736019814
9736025307
9736031594
9736038857
9736043129
9736050698
9736055581
9736062355
9736068581
9736074257
9736080361
9736085427
9736090981
9736097206
9736101845
9736107704
9736114662
9736120461
9736126869
9736132729
9736136818
9736146034
9736153114
9736159706
9736164833
9736171181
9736176735
9736182838
9736189247
9736194862
9736200356
9736206703
9736212379
9736219215
9736225685
9736231666
9736235695
9736243019
9736249794
9736256080
9736261391
9736266456
9736275856
9736281044
9736287758
9736295448
9736302101
9736308387
9736315651
9736322975
9736331642
9736339271
9736346290
9736354042
9736360633
9736368995
9736375038
9736382240
9736388099
9736395240
9736401344
9736408546
9736415382
9736421791
9736428138
9736434608
9736440833
9736447181
9736453773
9736460182
9736467201
9736474342
9736480567
9736486976
9736493018
9736497840
9736506263
9736512855
9736518287
9736526099
9736532447
9736540382
9736546912
9736551795
9736559852
9736567420
9736573462
9736580298
9736587745
9736593848
9736598731
9736605872
9736613501
9736619544
9736624305
9736632666
9736638160
9736644141
9736648841
9736660376
9736667090
9736674292
9736681494
9736687720
9736692481
9736699439
9736704505
9736711524
9736718909
9736724951
9736731482
9736735877
9736742041
9736747901
9736754492
9736761633
9736768958
9736774878
9736781897
9736788001
9736795203
9736801733
9736808325
9736815466
9736821020
9736828101
9736835242
9736841467
9736846533
9736854346
9736861243
9736869421
9736876379
9736881994
9736891089
9736896582
9736903113
9736910254
9736918921
9736924231
9736932287
9736941931
9736948400
9736957983
9736966589
9736972692
9736979956
9736988256
9736993017
9736999914
9737005407
9737014562
9737020849
9737028295
9737033605
9737040624
9737046728
9737053442
9737060583
9737067724
9737074377
9737081091
9737101720
9737109167
9737116857
9737122594
9737130041
9737137670
9737143224
9737152990
9737161107
9737166479
9737176122
9737182958
9737190587
9737198156
9737204259
9737212072
9737220433
9737226232
9737232640
9737239904
9737247655
9737254613
9737262487
9737268590
9737276342
9737284398
9737290563
9737300023
9737308141
9737316075
9737324010
9737330968
9737338048
9737346776
9737353612
9737360204
9737370946
9737378575
9737386388
9737393163
9737402135
9737407262
9737415684
9737424840
9737432225
9737439488
9737444859
9737451878
9737458775
9737461827
9737471715
9737477208
9737483800
9737489598
9737495640
9737502903
9737509068
9737513401
9737521214
9737526646
9737534520
9737541539
9737548191
9737553685
9737560826
9737567173
9737574314
9737580784
9737586277
9737594029
9737600682
9737608128
9737614964
9737620701
9737626499
9737633335
9737639134
9737645481
9737651341
9737657078
9737662815
9737668491
9737673924
9737679295
9737683445
9737691257
9737697178
9737703464
9737709629
9737715061
9737722446
9737728733
9737737156
9737743564
9737748997
9737755222
9737759800
9737766208
9737771274
9737777439
9737782261
9737787998
9737792759
9737798557
9737804783
9737808750
9737817112
9737822544
9737827732
9737832309
9737839145
9737844394
9737850498
9737856357
9737862522
9737868076
9737874668
9737881992
9737886386
9737894748
9737900119
9737907688
9737913364
9737919284
9737926425
9737930942
9737939487
9737942722
9737950961
9737958164
9737963535
9737968784
9737976108
9737981601
9737988315
9737994357
9738002719
9738008090
9738014438
9738021396
9738028842
9738035190
9738042880
9738048312
9738054111
9738060763
9738066806
9738073459
9738079989
9738086215
9738093112
9738101779
9738108127
9738114596
9738120944
9738126193
9738134188
9738142123
9738150058
9738154391
9738161166
9738167208
9738173983
9738178988
9738185580
9738192721
9738199191
9738207003
9738212252
9738219454
9738225070
9738231783
9738239840
9738244662
9738251559
9738257540
9738263339
9738269442
9738276522
9738282931
9738290133
9738294894
9738301241
9738307955
9738313570
9738317965
9738325533
9738328463
9738338595
9738345553
9738350924
9738355929
9738363558
9738368258
9738375460
9738381563
9738388521
9738395235
9738401705
9738410616
9738416048
