9654764590
9654769778
9654774661
9654780032
9654785098
9654790469
9654795413
9654800356
9654804751
9654809695
9654814639
9654819643
9654824221
9654829714
9654835207
9654840334
9654845034
9654849795
9654855288
9654860232
9654865115
9654871035
9654876833
9654882754
9654886843
9654893069
9654899233
9654904909
9654911379
9654917727
9654923281
9654931276
9654937441
9654944460
9654951052
9654957399
9654962404
9654971315
9654979250
9654985964
9654992800
9654999575
9655006105
9655012575
9655020143
9655027040
9655034609
9655041201
9655047060
9655054201
9655062807
9655067995
9655075624
9655083559
9655088442
9655097353
9655102724
9655111696
9655117983
9655125063
9655133119
9655138673
9655146364
9655152834
9655160707
9655165651
9655173830
9655182802
9655188966
9655196290
9655205934
9655213197
9655220827
9655226198
9655234437
9655241762
9655248781
9655257875
9655264161
9655272279
9655277467
9655286805
9655292787
9655300416
9655306642
9655317140
9655324464
9655331666
9655338197
9655345216
9655352296
9655360108
9655369081
9655376527
9655383973
9655390443
9655398377
9655406617
9655414307
9655421388
9655431214
9655439088
9655446229
9655453492
9655461488
9655469483
9655476258
9655483338
9655490113
9655497742
9655506898
9655512879
9655521607
9655529664
9655536866
9655543641
9655549378
9655558411
9655566040
9655576172
9655584107
9655590943
9655599488
9655607117
9655615113
9655621704
9655629700
9655637879
9655644898
9655653015
9655657898
9655666016
9655674378
9655682984
9655690308
9655695984
9655703857
9655709412
9655717712
9655724854
9655732605
9655740723
9655746521
9655755249
9655763306
9655770691
9655778564
9655785766
9655794067
9655800659
9655808838
9655816589
9655824463
9655832397
9655838806
9655846801
9655853576
9655860778
9655869384
9655875488
9655884094
9655892273
9655899292
9655905883
9655913024
9655920593
9655929382
9655937194
9655944396
9655952331
9655960082
9655965454
9655973510
9655982910
9655990600
9655998534
9656004455
9656014159
9656021178
9656030517
9656039001
9656046020
9656054259
9656062682
9656071410
9656079101
9656088500
9656096190
9656104430
9656112609
9656121215
9656130065
9656137938
9656145751
9656153502
9656162597
9656170104
9656177916
9656186522
9656192809
9656201781
9656206481
9656218932
9656226073
9656234313
9656242797
9656250609
9656257140
9656263976
9656273619
9656280577
9656288023
9656296324
9656304259
9656311766
9656317992
9656328185
9656335997
9656342284
9656348753
9656360350
9656366881
9656374266
9656382872
9656391173
9656399840
9656406553
9656414976
9656421812
9656429136
9656437864
9656445677
9656453672
9656461180
9656468260
9656476683
9656484434
9656489927
9656499083
9656506468
9656514585
9656521849
9656527830
9656537229
9656545896
9656554441
9656561338
9656569578
9656576841
9656585142
9656593992
9656601621
9656609129
9656751584
9656761777
9656769468
9656776731
9656783750
9656790830
9656798764
9656805966
9656814878
9656826169
9656833066
9656839780
9656846921
9656854428
9656863034
9656872067
9656880185
9656888913
9656896848
9656906430
9656916928
9656926511
9656934445
9656944211
9656952267
9656960141
9656965939
9656973874
9656981076
9656987668
9656994443
9657002621
9657009396
9657016354
9657024838
9657033200
9657040829
9657045956
9657054013
9657059933
9657067624
9657072201
9657079647
9657087765
9657092953
9657099972
9657105709
9657112301
9657117855
9657123715
9657129635
9657137142
9657141598
9657148556
9657155392
9657159908
9657166561
9657172421
9657179867
9657186703
9657192928
9657197872
9657203732
9657210140
9657216061
9657221188
9657229122
9657235104
9657239986
9657247127
9657253048
9657258724
9657265011
9657271908
9657278866
9657283871
9657291012
9657297298
9657303585
9657309688
9657316463
9657324093
9657330440
9657337032
9657343441
9657349605
9657355831
9657361995
9657368526
9657375240
9657383602
9657388546
9657395992
9657400753
9657408321
9657414608
9657421688
9657427059
9657436702
9657442745
9657452327
9657461543
9657467647
9657477474
9657486751
9657489986
9657499690
9657508052
9657513362
9657520808
9657526912
9657532649
9657542842
9657549739
9657560237
9657568904
9657574702
9657583125
9657591182
9657598140
9657604060
9657613032
9657618098
9657626826
9657633113
9657640315
9657645320
9657651912
9657660090
9657667781
9657673213
9657680232
9657686152
9657693965
9657701045
9657706416
9657714961
9657721491
9657729182
9657734492
9657739436
9657748347
9657753352
9657761286
9657769465
9657775202
9657782893
9657789973
9657797297
9657802668
9657809809
9657817377
9657823359
9657832331
9657837885
9657846735
9657852351
9657860712
9657867426
9657873530
9657881220
9657889704
9657895075
9657902582
9657909357
9657916071
9657922785
9657929804
9657938349
9657945490
9657952936
9657960138
9657966852
9657973932
9657981195
9657989618
9657995661
9658004450
9658013239
9658018549
9658026728
9658032892
9658041376
9658049555
9658057428
9658063593
9658072443
9658077753
9658086603
9658092584
9658098322
9658107660
9658113763
9658122125
9658129510
9658137628
9658143243
9658152643
9658158136
9658165704
9658174249
9658183893
9658189996
9658198053
9658205255
9658211419
9658218072
9658226800
9658231378
9658241571
9658249200
9658257928
9658267266
9658273980
9658280328
9658290643
9658298761
9658307305
9658314508
9658324151
9658331719
9658337823
9658343621
9658350884
9658356439
9658362908
9658370233
9658375420
9658380914
9658387139
9658392693
9658398126
9658402459
9658410455
9658416863
9658421380
9658428094
9658434197
9658439019
9658445061
9658452630
9658457452
9658462639
9658468682
9658473626
9658479729
9658485161
9658489800
9658498162
9658504021
9658508965
9658514275
9658520134
9658525383
9658531365
9658537041
9658542717
9658549370
9658553338
9658559990
9658563774
9658570671
9658574395
9658581231
9658585869
9658592095
9658596367
9658602532
9658608696
9658614617
9658620476
9658626335
9658631951
9658637749
9658644707
9658649407
9658655083
9658662590
9658667961
9658674492
9658680473
9658686150
9658691338
9658698418
9658704216
9658710503
9658717155
9658721489
9658728447
9658733330
9658738762
9658747490
9658750969
9658759086
9658763847
9658769951
9658778190
9658784843
9658792167
9658797722
9658803154
9658808647
9658816337
9658823539
9658832817
9658839775
9658850212
9658858757
9658864067
9658871635
9658876518
9658883598
9658889701
9658894157
9658901603
9658908500
9658913810
9658922599
9658928214
9658936088
9658942008
9658947502
9658953483
9658960441
9658965141
9658972343
9658979545
9658987235
9658993888
9658998649
9659006705
9659016471
9659022636
9659029105
9659035758
9659041434
9659048514
9659055411
9659062064
9659069511
9659076652
9659082145
9659089713
9659096671
9659103751
9659109305
9659116691
9659122550
9659128959
9659136527
9659145072
9659151114
9659157767
9659165152
9659171317
9659177176
9659183341
9659191825
9659198233
9659204642
9659211966
9659218497
9659224845
9659231009
9659237845
9659244315
9659251334
9659258658
9659264578
9659271597
9659277884
9659284964
9659291861
9659297781
9659304373
9659311636
9659318045
9659324026
9659330435
9659336905
9659344412
9659350943
9659357046
9659363638
9659370596
9659376333
9659385916
9659393545
9659401297
9659409109
9659414847
9659420950
9659433645
9659440420
9659448416
9659454214
9659459646
9659466665
9659474478
9659481131
9659487600
9659494192
9659500418
9659505789
9659513601
9659519827
9659526541
9659534048
9659540823
9659547720
9659554373
9659561880
9659568655
9659574941
9659582327
9659590688
9659597463
9659603750
9659610403
9659625234
9659632803
9659640859
9659646657
9659653738
9659659231
9659667348
9659672597
9659681081
9659687124
9659697378
9659703725
9659712270
9659718618
9659727163
9659733632
9659741628
9659750844
9659758657
9659766103
9659773610
9659781179
9659786122
9659796804
9659803823
9659811269
9659820363
9659828908
9659835805
9659843862
9659850209
9659859242
9659865590
9659874379
9659880788
9659889272
9659899342
9659905385
9659913808
9659921925
9659930958
9659937123
9659945546
9659953419
9659960499
9659967030
9659976063
9659980458
9659989979
9659996388
9660003895
9660010182
9660018178
9660024281
9660030323
9660036244
9660042653
9660048512
9660054371
9660060109
9660067311
9660071766
9660079823
9660084400
9660092823
9660099415
9660106800
9660116932
9660123280
9660130360
9660139210
9660144154
9660151295
9660157581
9660165638
9660170582
9660177723
9660182240
9660189076
9660196339
9660201771
9660207447
9660213062
9660219654
9660224232
9660229603
9660235889
9660241749
9660249317
9660255543
9660260364
9660265980
9660272754
9660278126
9660283741
9660289844
9660295154
9660301014
9660306263
9660312793
9660317005
9660323841
9660329639
9660335315
9660342273
9660348255
9660354175
9660358997
9660365406
9660370044
9660376819
9660382251
9660387989
9660393482
9660399646
9660404956
9660411609
9660415637
9660422168
9660430103
9660436572
9660442737
9660447742
9660454273
9660458972
9660465381
9660472156
9660477527
9660486194
9660490283
9660497546
9660504199
9660509204
9660514819
9660522754
9660528308
9660533801
9660539722
9660543750
9660551013
9660555408
9660563769
9660569079
9660575488
9660580371
9660586841
9660591723
9660599048
9660604236
9660611194
9660617297
9660623156
9660628833
9660635791
9660641406
9660648242
9660657458
9660662951
9660673877
9660684436
9660690356
9660699267
9660705737
9660716174
9660723193
9660728747
9660737109
9660743456
9660750475
9660757311
9660764697
9660772692
9660779223
9660785387
9660792040
9660796557
9660804369
9660810656
9660817126
9660823840
9660828539
9660834582
9660841540
9660849413
9660856249
9660862841
9660868456
9660875841
9660881151
9660889086
9660895678
9660902636
9660909594
9660914293
9660922167
9660927233
9660933397
9660940477
9660947863
9660954027
9660960619
9660966600
9660973619
9660978197
9660985277
9660992601
9660999193
9661004930
9661012499
9661019090
9661024889
9661030321
9661036424
9661043566
9661050768
9661057665
9661065172
9661071153
9661077928
9661084337
9661091844
9661096361
9661104845
9661109483
9661117174
9661121934
9661129808
9661137681
9661142747
9661151231
9661158433
9661165330
9661172593
9661180650
9661188890
9661194932
9661203782
9661211168
9661219163
9661226426
9661233873
9661239976
9661247483
9661254319
9661260423
9661267930
9661276109
9661282518
9661291429
9661299424
9661309007
9661315721
9661325120
9661330918
9661341660
9661347215
9661356004
9661362779
9661370774
9661379136
9661385239
9661392930
9661399461
9661407639
9661413865
9661421860
9661428452
9661435227
9661440293
9661448350
9661453843
9661463120
9661469895
9661478074
9661486191
9661493393
9661501755
9661509446
9661518479
9661524216
9661532700
9661540268
9661546555
9661556382
9661564011
9661573716
9661582321
9661590805
9661597031
9661605698
9661613571
9661618759
9661627121
9661634445
9661642014
9661647202
9661653244
9661659409
9661666000
9661673080
9661679184
9661684738
9661691879
9661696030
9661703232
9661707809
9661715805
9661721542
9661727585
9661733322
9661739120
9661744980
9661750778
9661757980
9661764023
9661770126
9661775680
9661781112
9661787704
9661792953
9661798568
9661806198
9661810653
9661816940
9661823715
9661827926
9661834640
9661838729
9661845749
9661851547
9661857650
9661862472
9661867965
9661872970
9661879318
9661885604
9661889938
9661896530
9661902511
9661912277
9661917953
9661925460
9661932357
9661940048
9661945358
9661951888
9661959029
9661963607
9661972091
9661977035
9661983505
9661989669
9661996078
9662002425
9662007308
9662013717
9662018539
9662025313
9662032455
9662037887
9662043929
9662052901
9662059127
9662065475
9662071090
9662078658
9662084212
9662090438
9662096602
9662103621
9662110091
9662115950
9662121261
9662126754
9662134627
9662141463
9662147750
9662154158
9662160506
9662168502
9662175338
9662180770
9662188582
9662193892
9662202132
9662208052
9662213606
9662221602
9662226485
9662236250
9662242537
9662249251
9662255782
9662260359
9662267928
9662273421
9662280562
9662286909
9662294600
9662301375
9662307173
9662314192
9662321822
9662327437
9662334700
9662340864
9662346907
9662354841
9662360945
9662368208
9662375899
9662380476
9662388533
9662393843
9662401594
9662408491
9662415449
9662420942
9662426191
9662434126
9662441328
9662449385
9662458662
9662464888
9662473066
9662480574
9662486677
9662496199
9662501448
9662509260
9662515852
9662523359
9662528303
9662535749
9662543806
9662548689
9662556623
9662562483
9662569807
9662575300
9662582014
9662589338
9662596174
9662603925
9662609907
9662616560
9662622541
9662629865
9662637067
9662643171
9662649274
9662656354
9662662824
9662669965
9662676496
9662682844
9662689252
9662695844
9662702436
9662710431
9662717023
9662723798
9662729718
9662738324
9662744794
9662751203
9662755902
9662763776
9662772748
9662781293
9662788190
9662793744
9662801801
9662808087
9662815045
9662824567
9662829755
9662837872
9662844586
9662850995
9662857892
9662865704
9662873517
9662880841
9662888715
9662896161
9662903973
9662908917
9662917889
9662925580
9662931561
9662939252
9662946271
9662957074
9662964764
9662970257
9662978009
9662987286
9662993634
9663002606
9663010235
9663017010
9663023602
9663030621
9663039410
9663047528
9663058209
9663065045
9663074627
9663081341
9663089947
9663098736
9663107708
9663116192
9663127178
9663136150
9663142071
9663149517
9663155743
9663163921
9663171246
9663179546
9663185162
9663191387
9663196514
9663203045
9663207928
9663214703
9663221905
9663226604
9663231975
9663238201
9663243511
9663249126
9663254680
9663261150
9663267803
9663272075
9663278545
9663284282
9663288372
9663295452
9663302471
9663306865
9663313518
9663319683
9663325359
9663330120
9663335247
9663341533
9663348674
9663353740
9663359661
9663364360
9663371501
9663376934
9663382366
9663388042
9663394817
9663398967
9663405010
9663409953
9663416545
9663422038
9663426006
9663432659
9663438701
9663444621
9663448833
9663455058
9663459819
9663464580
9663471294
9663476421
9663481792
9663487956
9663491679
9663497722
9663503459
9663508525
9663515117
9663521892
9663526652
9663531535
9663536723
9663543010
9663547709
9663556376
9663562175
9663567851
9663572185
9663578837
9663583659
9663588481
9663593120
9663601603
9663605876
9663612285
9663618327
9663622416
9663631511
9663641764
9663647624
9663655497
9663663249
9663669169
9663677714
9663683818
9663691630
9663698222
9663704569
9663710551
9663715678
9663722758
9663727824
9663735453
9663741374
9663747904
9663754191
9663760661
9663766825
9663773173
9663779704
9663787272
9663793375
9663799784
9663805827
9663812235
9663818217
9663824991
9663832133
9663838602
9663844828
9663851237
9663857584
9663863993
9663871439
9663876383
9663884623
9663889505
9663897745
9663902689
9663910929
9663915934
9663922953
9663929972
9663936319
9663943338
9663949747
9663955362
9663961588
9663968485
9663974344
9663979654
9663987711
9663993021
9663999796
9664005167
9664012430
9664017801
9664025491
9664033975
9664040018
9664046365
9664052774
9664059061
9664065775
9664072000
9664079385
9664085794
9664092447
9664096963
9664105325
9664109842
9664118082
9664124673
9664129556
9664135965
9664143899
9664149942
9664156656
9664162881
9664169778
9664175760
9664183572
9664190469
9664196634
9664202432
9664207986
9664215188
9664221231
9664227761
9664234353
9664240579
9664247537
9664255105
9664261392
9664269815
9664278115
9664285989
9664291909
9664300942
9664308022
9664315164
9664320962
9664327737
9664334390
9664340798
9664348855
9664355813
9664360574
9664368691
9664373452
9664380105
9664386941
9664394265
9664401101
9664407815
9664412759
9664420754
9664426186
9664433205
9664440896
9664448037
9664453835
9664461220
9664467202
9664473794
9664481423
9664488991
9664495034
9664502785
9664508706
9664515358
9664522927
9664529580
9664535012
9664542397
9664550026
9664556862
9664564492
9664570351
9664578041
9664585488
9664591896
9664598305
9664607582
9664616249
9664622658
9664631081
9664637367
9664645302
9664653969
9664662331
9664668678
9664676796
9664685768
9664693886
9664700294
9664707497
9664715858
9664723183
9664731056
9664740272
9664747169
9664753578
9664762672
9664771034
9664776893
9664785438
9664793434
9664800453
9664808387
9664816200
9664824257
9664832740
9664840736
9664848060
9664855262
9664861976
9664870948
9664878334
9664884254
9664892921
9664898475
9664905738
9664912635
9664917640
9664924659
9664932594
9664939307
9664944495
9664951209
9664957191
9664963599
9664968787
9664974708
9664983863
9664993751
9664999366
9665007300
9665013404
9665021827
9665027686
9665037635
9665042212
9665049048
9665055091
9665061866
9665069068
9665075355
9665081397
9665087684
9665092078
9665099341
9665106360
9665111182
9665117713
9665123999
9665132178
9665136817
9665143470
9665148169
9665155066
9665159644
9665165686
9665172766
9665178687
9665182776
9665189795
9665195716
9665201453
9665205420
9665211707
9665218115
9665223731
9665229956
9665236121
9665241797
9665247961
9665253943
9665258643
9665265295
9665271948
9665276709
9665282080
9665288550
9665293921
9665300391
9665307104
9665313025
9665318335
9665324499
9665330115
9665334631
9665340857
9665348364
9665353979
9665360937
9665366614
9665370398
9665376989
9665382605
9665387854
9665395117
9665399939
9665407263
9665412329
9665418066
9665423193
9665429052
9665435400
9665441992
9665447302
9665454016
9665459814
9665466223
9665472265
9665477453
9665485388
9665491613
9665498571
9665504553
9665510351
9665516332
9665522192
9665528967
9665535619
9665540991
9665549291
9665556615
9665563818
9665571874
9665580724
9665586462
9665596410
9665602819
9665610387
9665616491
9665623571
9665631261
9665635961
9665644384
9665649145
9665656896
9665661657
9665668676
9665675573
9665682348
9665689122
9665694249
9665701085
9665706578
9665713475
9665719823
9665725133
9665731908
9665737218
9665745153
9665750402
9665756749
9665762059
9665769139
9665776891
9665781835
9665789464
9665794896
9665800328
9665807591
9665813756
9665820592
9665826756
9665834020
9665840428
9665847081
9665853124
9665858861
9665864903
9665872227
9665879063
9665886266
9665890660
9665898106
9665905736
9665912205
9665918492
9665923497
9665931737
9665938695
9665945042
9665950291
9665956822
9665963719
9665969944
9665975438
9665982457
9665990208
9665996739
9666002964
9666009861
9666016087
9666022679
9666029087
9666035130
9666041783
9666049656
9666056309
9666062779
9666069493
9666075413
9666084202
9666091953
9666097691
9666105442
9666113011
9666121067
9666125767
9666135471
9666143345
9666149082
9666155369
9666162937
9666169285
9666178135
9666185215
9666192539
9666200962
9666207920
9666215366
9666224399
9666231663
9666239536
9666247043
9666256504
9666263645
9666273105
9666280002
9666288486
9666295139
9666303745
9666310215
9666317783
9666323581
9666332126
9666338779
9666346591
9666354709
9666362094
9666367893
9666375217
9666383396
9666391208
9666398837
9666404453
9666412631
9666420200
9666428561
9666434543
9666443759
9666451938
9666461826
9666467685
9666476169
9666484286
9666491428
9666498996
9666506259
9666513522
9666521701
9666528842
9666537204
9666546420
9666552524
9666561618
9666568454
9666575045
9666584628
9666593051
9666598910
9666606234
9666613986
9666620517
9666627475
9666635226
9666642367
9666650851
9666657260
9666662753
9666668917
9666675570
9666683077
9666687655
9666695284
9666701937
9666707369
9666713839
9666720858
9666725436
9666732028
9666737093
9666745333
9666753207
9666758944
9666765841
9666769686
9666777254
9666784701
9666791231
9666797884
9666802584
9666809542
9666814303
9666819857
9666826815
9666833101
9666841524
9666847628
9666852877
9666858126
9666863314
9666869051
9666876619
9666883150
9666888582
9666893526
9666900606
9666907564
9666914339
9666921602
9666926485
9666931978
9666938570
9666942110
9666949495
9666955110
9666961031
9666966341
9666972383
9666977815
9666983614
9666991426
9666998018
9667003389
9667011568
9667016878
9667024202
9667029817
9667036470
9667040926
9667047578
9667054536
9667062288
9667068574
9667076265
9667082185
9667087251
9667092073
9667099763
9667105562
9667111665
9667118135
9667123994
9667129976
9667135286
9667142366
9667148042
9667153779
9667160005
9667165010
9667173066
9667179292
9667186250
9667193208
9667198335
9667204194
9667210481
9667215242
9667224946
9667232331
9667237825
9667243928
9667250276
9667256135
9667265840
9667273408
9667278657
9667284699
9667291047
9667297029
9667302522
9667308869
9667316255
9667322846
9667329682
9667337312
9667342561
9667350556
9667356293
9667362275
9667370087
9667377839
9667381989
9667391083
9667398286
9667406525
9667413422
9667420502
9667426850
9667436127
9667443146
9667450593
9667456757
9667462922
9667468964
9667475617
9667483185
9667490143
9667495819
9667503571
9667509125
9667516388
9667523285
9667530732
9667536347
9667541413
9667548188
9667554962
9667559540
9667567536
9667575165
9667580841
9667586395
9667593292
9667599213
9667606415
9667612579
9667619598
9667626984
9667632782
9667639008
9667645660
9667652313
9667659760
9667667694
9667674591
9667682342
9667689667
9667698089
9667704376
9667713104
9667721161
9667727936
9667735992
9667743500
9667750152
9667757660
9667765167
9667772430
9667780731
9667787017
9667796417
9667805755
9667813568
9667821868
9667830535
9667838043
9667844512
9667854888
9667861297
9667870635
9667878448
9667887664
9667895477
9667901763
9667910796
9667917938
9667928985
9667936675
9667942413
9667949798
9667957000
9667966766
9667973357
9667982146
9667990264
9667998687
9668007659
9668016326
9668025420
9668036529
9668043426
9668050689
9668059478
9668067473
9668076018
9668083709
9668090606
9668097869
9668104705
9668112395
9668120757
9668126982
9668135344
9668144133
9668150847
9668157866
9668164275
9668170561
9668177947
9668184905
9668189910
9668197783
9668203825
9668210906
9668216094
9668223235
9668229155
9668235075
9668242644
9668248747
9668255217
9668261382
9668268095
9668275542
9668280730
9668288725
9668295378
9668301359
9668307158
9668312834
9668319792
9668327116
9668331755
9668339079
9668346281
9668352751
9668358915
9668364470
9668372465
9668378202
9668385099
9668391264
9668396025
9668403288
9668410490
9668415312
9668422453
9668427397
9668434355
9668438993
9668445097
9668452360
9668457670
9668463713
9668468412
9668475126
9668480314
9668486845
9668491972
9668499540
9668505766
9668510771
9668515897
9668522550
9668527799
9668535978
9668541959
9668548307
9668553312
9668559354
9668564970
9668574613
9668583463
9668590177
9668597684
9668604398
9668610135
9668618986
9668625516
9668631620
9668637540
9668642606
9668650602
9668656949
9668663663
9668670194
9668677701
9668683377
9668688932
9668695462
9668703946
9668709073
9668715238
9668721891
9668728971
9668734830
9668741544
9668748441
9668754178
9668761380
9668767545
9668774137
9668780301
9668786771
9668791776
9668799832
9668805814
9668812650
9668819241
9668826566
9668834317
9668839139
9668846524
9668852689
9668860501
9668867825
9668874661
9668881680
9668889371
9668895352
9668902676
9668907010
9668914212
9668922818
9668928921
9668936245
9668942837
9668950039
9668956387
9668962491
9668970059
9668976956
9668982388
9668989285
9668994961
9669001370
9669008023
9669014798
9669022366
9669027981
9669033840
9669040432
9669045742
9669054714
9669060696
9669067837
9669073757
9669079006
9669087246
9669092007
9669099026
9669106167
9669113186
9669121059
9669127773
9669134792
9669141628
9669157375
9669163967
9669172207
9669179653
9669185085
9669193264
9669198818
9669207241
9669213833
9669218654
9669225246
9669232265
9669239834
9669245754
9669253078
9669259060
9669265957
9669272609
9669279201
9669285488
9669291652
9669298854
9669305324
9669313137
9669319362
9669328212
9669335109
9669342617
9669348659
9669356838
9669362209
9669369472
9669376552
9669384487
9669391445
9669398341
9669404567
9669411098
9669418422
9669427943
9669433864
9669441188
9669447231
9669454738
9669463466
9669471400
9669479518
9669484889
9669494838
9669502101
9669510402
9669518092
9669524562
9669532069
9669538783
9669547511
9669554835
9669560206
9669569056
9669575526
9669584803
9669591822
9669599391
9669606654
9669613734
9669618678
9669626979
9669635646
9669643031
9669649867
9669657069
9669664393
9669671839
9669678980
9669687098
9669695216
9669701930
9669708521
9669714503
9669720118
9669727320
9669739588
9669747218
9669753382
9669760889
9669765955
9669773585
9669783411
9669789210
9669795618
9669802271
9669806849
9669813746
9669821314
9669828211
9669834131
9669840601
9669848719
9669854395
9669860254
9669864405
9669872767
9669878565
9669885340
9669891687
9669898401
9669902552
9669910059
9669917200
9669923853
9669930384
9669934778
9669941736
9669948267
9669954920
9669961145
9669966699
9669972376
9669979090
9669986353
9669992090
9669997583
9670003442
9670011011
9670016565
9670023157
9670030908
9670037439
9670041528
9670049036
9670054346
9670059961
9670067224
9670073816
9670079248
9670084680
9670089380
9670096155
9670103418
9670108484
9670115014
9670120324
9670125390
9670132715
9670139551
9670145776
9670152795
9670157617
9670166101
9670173730
9670177636
9670184533
9670192102
9670196862
9670204065
9670210595
9670215356
9670222985
9670230493
9670236047
9670243188
9670249597
9670257470
9670266686
9670277856
9670284142
9670292565
9670299645
9670305749
9670312035
9670318932
9670325951
9670333093
9670339806
9670345116
9670351342
9670358483
9670365258
9670372399
9670378258
9670385461
9670390221
9670397851
9670404626
9670411095
9670418236
9670423485
9670429772
9670438561
9670445275
9670451073
9670457787
9670464318
9670470055
9670478844
9670486596
9670493309
9670500267
9670506798
9670512719
9670518700
9670525658
9670533592
9670538841
9670545250
9670553307
9670560143
9670568382
9670579430
9670587792
9670595787
9670603478
9670611107
9670617821
9670624535
9670630333
9670638023
9670646263
9670652916
9670660301
9670666466
9670672569
9670678306
9670685448
9670691246
9670698021
9670704246
9670712120
9670718712
9670724693
9670730919
9670736900
9670745506
9670752281
9670758201
9670765403
9670770530
9670778526
9670788475
9670794700
9670802513
9670812645
9670818626
9670825889
9670835838
9670843162
9670850547
9670857749
9670865318
9670870811
9670878929
9670884483
9670890891
9670896201
9670904380
9670911094
9670916221
9670923057
9670930442
9670935874
9670944663
9670952720
9670960044
9670966148
9670973960
9670981345
9670988303
9670994407
9671002524
9671009910
9671016196
9671023520
9671032065
9671036643
9671043662
9671050132
9671058310
9671066245
9671072593
9671081443
9671090720
9671096884
9671105368
9671114402
9671121604
9671129416
9671137046
9671144187
9671150229
9671161215
9671168356
9671175314
9671184165
9671191062
9671196982
9671202719
9671210532
9671217123
9671223837
9671230429
9671237265
9671242941
9671246298
9671254599
9671261435
9671266379
9671273886
9671278708
9671284384
9671293478
9671299216
9671304403
9671310568
9671315756
9671321493
9671327353
9671334250
9671337484
9671346029
9671351156
9671358236
9671365683
9671372580
9671379110
9671384481
9671394369
9671402243
9671407064
9671412741
9671418539
9671424826
9671429952
9671436483
9671442465
9671446981
9671454122
9671459005
9671465292
9671472372
9671476278
9671482931
9671488363
9671493307
9671500204
9671504598
9671510946
9671515585
9671521139
9671527364
9671533285
9671538412
9671544942
9671549459
9671554403
9671561544
9671567831
9671573080
9671579915
9671585592
9671590780
9671597371
9671603414
9671610128
9671614217
9671621724
9671628377
9671632711
9671641988
9671648275
9671653951
9671658834
9671665181
9671670675
9671676595
9671682332
9671689962
9671697469
9671704671
9671710286
9671717610
9671723531
9671731526
9671736348
9671745442
9671750752
9671756917
9671763936
9671770589
9671777547
9671784505
9671790303
9671796895
9671804280
9671812947
9671820454
9671825764
9671832539
9671839925
9671846822
9671855183
9671864827
9671872090
9671877278
9671885640
9671892232
9671901204
9671908650
9671914815
9671921162
9671929646
9671935017
9671942402
9671949543
9671955037
9671962666
9671968647
9671975361
9671983174
9671988789
9671994892
9672004048
9672009968
9672016255
9672024800
9672030842
9672037129
9672045063
9672051655
9672057820
9672065510
9672071064
9672077473
9672083881
9672089802
9672097797
9672101337
9672111591
9672118122
9672125263
9672129658
9672137043
9672144123
9672149311
9672157123
9672162800
9672170734
9672177509
9672183369
9672191120
9672200886
9672207416
9672215534
9672219806
9672227741
9672236286
9672243000
9672250202
9672257343
9672264606
9672272113
9672278644
9672285236
9672291645
9672299396
9672305744
9672312397
9672318805
9672328205
9672336017
9672344745
9672351947
9672359638
9672366046
9672373676
9672381549
9672389972
9672396991
9672403033
9672411151
9672420551
9672426532
9672438068
9672447711
9672455951
9672465106
9672470538
9672479388
9672485187
9672494159
9672500689
9672508014
9672516070
9672523211
9672529071
9672536700
9672545977
9672552020
9672560870
9672567340
9672575274
9672582171
9672590533
9672597857
9672605487
9672614581
9672622943
9672630450
9672636004
9672647662
9672652789
9672661639
9672670794
9672677325
9672686297
9672692706
9672699664
9672706316
9672712237
9672719317
9672725481
9672730852
9672736529
9672743304
9672750628
9672755205
9672762041
9672768572
9672773638
9672781145
9672788347
9672794207
9672800127
9672805559
9672810625
9672814959
9672822893
9672830278
9672836199
9672841692
9672848345
9672853167
9672857073
9672865740
9672871294
9672877520
9672882891
9672887651
9672893206
9672900713
9672907549
9672913408
9672920305
9672924394
9672930071
9672934892
9672941728
9672946916
9672952776
9672958147
9672964678
9672969133
9672977434
9672985429
9672992265
9672998125
9673003069
9673009111
9673017900
9673024248
9673030046
9673035844
9673041154
9673047624
9673054155
9673060197
9673066057
9673071489
9673077836
9673083208
9673088029
9673095354
9673103349
9673108415
9673113847
9673120988
9673128496
9673135453
9673141191
9673146745
9673152543
9673158708
9673163102
9673171647
9673178727
9673184648
9673191972
9673199113
9673204057
9673212907
9673220353
9673224870
9673231767
9673238786
9673243974
9673253556
9673261369
9673267167
9673274064
9673281144
9673288834
9673295670
9673300492
9673309159
9673315446
9673321427
9673327103
9673334794
9673339921
9673348099
9673354386
9673360123
9673366227
9673372269
9673379899
9673386796
9673392533
9673398453
9673405472
9673411698
9673419083
9673424698
9673432023
9673437943
9673444046
9673451249
9673456559
9673464920
9673470963
9673477799
9673483475
9673491654
9673500016
9673506790
9673512650
9673522537
9673529556
9673536942
9673544205
9673549942
9673556351
9673562698
9673569901
9673575333
9673581558
9673589066
9673596329
9673601883
9673611038
9673617630
9673621170
9673630814
9673638992
9673644241
9673651260
9673655655
9673662735
9673670425
9673677261
9673683182
9673690384
9673698684
9673705642
9673714065
9673722671
9673729690
9673737442
9673746841
9673753555
9673761551
9673768875
9673776992
9673782730
9673791030
9673798110
9673806167
9673812149
9673822402
9673833206
9673842239
9673849258
9673855911
9673864517
9673871047
9673879470
9673884841
9673893508
9673901626
9673908157
9673915664
9673923782
9673932143
9673940993
9673948562
9673958205
9673966994
9673972793
9673982558
9673988601
9673998122
9674003554
9674012160
9674020644
9674028945
9674036940
9674043410
9674051772
9674059829
9674065932
9674074660
9674083083
9674089431
9674100417
9674106581
9674115615
9674123427
9674131667
9674142775
9674149062
9674156569
9674165541
9674175185
9674183424
9674192641
9674198805
9674206801
9674214369
9674223036
9674229628
9674237624
9674244520
9674250807
9674255263
9674262160
9674268202
9674273878
9674280348
9674287245
9674293348
9674300490
9674306593
9674312513
9674319105
9674324965
9674332106
9674336561
9674343397
9674349257
9674354933
9674359205
9674366102
9674372999
9674379347
9674384474
9674390577
9674395887
9674400038
9674407118
9674411817
9674419935
9674425062
9674431166
9674437879
9674443495
9674448805
9674454359
9674460829
9674467420
9674475294
9674481580
9674488111
9674493848
9674500623
9674506178
9674511915
9674517225
9674523634
9674530286
9674536451
9674542554
9674547498
9674555311
9674560865
9674565992
9674571302
9674577161
9674584241
9674588941
9674596082
9674601331
9674607068
9674611951
9674617750
9674623487
9674629407
9674635450
9674640516
9674648145
9674653150
9674658826
9674664624
9674670423
9674678052
9674683362
9674690320
9674696057
9674702344
9674708020
9674715833
9674723523
9674731641
9674737866
9674743848
9674751477
9674757337
9674763379
9674767835
9674775159
9674781506
9674787793
9674793835
9674798352
9674805920
9674811414
9674817517
9674824597
9674829419
9674837109
9674842053
9674849621
9674854504
9674862866
9674868542
9674874890
9674882153
9674888257
9674894726
9674900830
9674906811
9674912976
9674919934
9674925915
9674933178
9674937817
9674945202
9674951306
9674957898
9674966442
9674971753
9674978894
9674985730
9674991345
9674995556
9675004345
9675011120
9675018322
9675025097
9675028698
9675037182
9675043286
9675048474
9675057324
9675063305
9675069653
9675076489
9675081677
9675088818
9675095898
9675102856
9675108837
9675115124
9675120556
9675127331
9675134899
9675141491
9675147594
9675156872
9675161999
9675167919
9675177318
9675184276
9675190441
9675196666
9675202282
9675209911
9675215343
9675221569
9675229870
9675236034
9675241527
9675247814
9675254345
9675261119
9675273265
9675280712
9675287303
9675294628
9675303844
9675310741
9675317028
9675323619
9675330516
9675336986
9675342418
9675351207
9675359386
9675366283
9675372203
9675378795
9675384349
9675390331
9675396556
9675404369
9675411082
9675418712
9675426097
9675432994
9675439464
9675446544
9675454417
9675463573
9675471812
9675478221
9675487681
9675496043
9675500743
9675507396
9675515147
9675522471
9675531138
9675539561
9675546092
9675554454
9675560801
9675567820
9675575206
9675586253
9675592662
9675599497
9675608225
9675614817
9675621775
9675630686
9675637278
9675645518
9675654795
9675661265
9675668589
9675677012
9675685130
9675693797
9675700571
9675710764
9675716868
9675724314
9675732066
9675738718
9675747263
9675755625
9675763987
9675769175
9675784739
9675791819
9675797861
9675808420
9675817270
9675824961
9675830759
9675836679
9675843088
9675848093
9675855906
9675863169
9675867868
9675875009
9675880808
9675887888
9675897165
9675905466
9675910654
9675917795
9675924814
9675930246
9675936899
9675943491
9675950693
9675954660
9675962412
9675967600
9675973154
9675980234
9675987558
9675993356
9675999460
9676005563
9676010751
9676018320
9676023080
9676030099
9676034555
9676040903
9676048288
9676054452
9676059884
9676065988
9676072580
9676078256
9676085580
9676092416
9676097543
9676102365
9676107370
9676114084
9676118539
9676125619
9676131967
9676137399
9676143258
9676150094
9676155954
9676161264
9676166879
9676173226
9676179879
9676184579
9676191781
9676198251
9676203988
9676209725
9676216378
9676222909
9676227853
9676234445
9676242135
9676247994
9676255258
9676259835
9676265817
9676271920
9676277413
9676285653
9676292306
9676297555
9676304635
9676310860
9676316537
9676324349
9676332101
9676337594
9676343941
9676351754
9676357308
9676364510
9676369698
9676379525
9676387337
9676391976
9676399972
9676406441
9676412667
9676420845
9676427376
9676435433
9676442696
9676449410
9676456307
9676462838
9676468758
9676477425
9676483101
9676489876
9676498482
9676505989
9676511727
9676518257
9676523506
9676529793
9676538216
9676544930
9676550484
9676558235
9676565010
9676570442
9676578316
9676585701
9676590279
9676595528
9676603279
9676609138
9676614021
9676623726
9676631599
9676637459
9676645088
9676650581
9676657478
9676666267
9676673897
9676680305
9676686348
9676692512
9676699470
9676706428
9676712776
9676721016
9676727058
9676734016
9676740303
9676747139
9676753791
9676762397
9676766853
9676773750
9676780281
9676786018
9676796089
9676803962
9676823127
9676830268
9676836677
9676844856
9676853278
9676859931
9676868293
9676873908
9676881843
9676887702
9676896980
9676907111
9676911811
9676922248
9676928840
9676935493
9676944648
9676954230
9676962226
9676970527
9676980720
9676988593
9676995917
9677005256
9677013190
9677021369
9677027655
9677036200
9677044379
9677052680
9677060187
9677067145
9677073371
9677079352
9677086676
9677094672
9677102667
9677110724
9677118476
9677126654
9677131110
9677140631
9677147406
9677155829
9677162543
9677170538
9677179572
9677186591
9677191473
9677201178
9677210211
9677218573
9677226446
9677235297
9677241888
9677250799
9677256598
9677267706
9677275335
9677282538
9677291510
9677298163
9677306524
9677312384
9677320074
9677328924
9677334417
9677341986
9677348761
9677355780
9677360540
9677367132
9677374212
9677380133
9677385260
9677390936
9677396978
9677402227
9677410223
9677415655
9677421819
9677427801
9677434393
9677438604
9677446050
9677451849
9677457647
9677464849
9677469671
9677475774
9677481939
9677488165
9677494634
9677499822
9677505498
9677512334
9677518316
9677524908
9677530828
9677537725
9677544073
9677551397
9677557073
9677568059
9677573064
9677580938
9677586126
9677591619
9677599126
9677604009
9677611882
9677618413
9677624944
9677632390
9677637700
9677642949
9677649602
9677656255
9677661992
9677668889
9677673894
9677680120
9677685796
9677691838
9677698003
9677703374
9677709111
9677714421
9677719243
9677727239
9677733586
9677739568
9677744756
9677751470
9677756047
9677763005
9677768254
9677776982
9677782353
9677787907
9677793278
9677799138
9677807011
9677812382
9677817448
9677823918
9677829838
9677835148
9677841313
9677847722
9677854619
9677861149
9677867070
9677873234
9677877751
9677885441
9677890019
9677898381
9677903996
9677911869
9677917180
9677923893
9677928898
9677935978
9677942997
9677949650
9677955510
9677961674
9677967472
9677973393
9677979069
9677984989
9677991581
9677997746
9678003422
9678009342
9678016361
9678020817
9678026737
9678033268
9678040104
9678047489
9678052799
9678057743
9678064457
9678069401
9678076481
9678084293
9678095158
9678103519
9678110599
9678117252
9678123844
9678129948
9678136478
9678144169
9678150516
9678157718
9678163517
9678168522
9678176212
9678182071
9678187931
9678195743
9678202091
9678206913
9678214298
9678220829
9678226261
9678233036
9678240055
9678245182
9678250980
9678257389
9678263309
9678268253
9678275516
9678280765
9678287662
9678293765
9678299930
9678305728
9678312015
9678319522
9678325565
9678333316
9678340518
9678348575
9678355228
9678361209
9678366275
9678373721
9678379337
9678387515
9678393375
9678398685
9678404605
9678411136
9678416690
9678423465
9678430179
9678437015
9678444400
9678451785
9678458743
9678464236
9678470523
9678475589
9678485354
9678491214
9678497195
9678502627
9678508914
9678515994
9678522708
9678528323
9678537051
9678543704
9678550296
9678556521
9678562319
9678567691
9678574526
9678581179
9678589785
9678596316
9678604617
9678610537
9678617434
9678623416
9678630557
9678638979
9678647036
9678653384
9678660952
9678666995
9678674136
9678680056
9678686831
9678692141
9678701174
9678709231
9678717531
9678724978
9678734926
9678743960
9678754458
9678762819
9678770998
9678780275
9678787600
9678794802
9678799990
9678807375
9678812319
9678820375
9678828127
9678833986
9678840883
9678846926
9678854738
9678860903
9678867067
9678876100
9678884523
9678891603
9678897646
9678902956
9678916628
9678924867
9678931276
9678941652
9678948244
9678954897
9678960817
9678967409
9678972475
9678979921
9678985963
9678992860
9678999391
9679005373
9679011049
9679015810
9679023073
9679030336
9679036745
9679041871
9679048585
9679054689
9679061586
9679067262
9679073488
9679080201
9679085512
9679093141
9679100343
9679106508
9679110475
9679117189
9679124818
9679130006
9679137513
9679143434
9679148011
9679155275
9679162721
9679167115
9679174073
9679178590
9679185121
9679190370
9679197816
9679206117
9679211244
9679216737
9679222535
9679228028
9679234376
9679241761
9679247376
9679252686
9679259217
9679265076
9679271485
9679277528
9679283265
9679289185
9679295289
9679301759
9679306031
9679312928
9679320435
9679328248
9679334229
9679346070
9679353638
9679359986
9679367127
9679373597
9679379151
9679385010
9679392579
9679397767
9679404664
9679409851
9679417176
9679424073
9679429383
9679435059
9679441895
9679447571
9679454041
9679458191
9679465454
9679472351
9679478638
9679484558
9679489075
9679497376
9679502869
9679508850
9679515808
9679522949
9679528320
9679535645
9679541016
9679547546
9679555298
9679562073
9679568298
9679574463
9679580749
9679588074
9679594360
9679600525
9679607483
9679613953
9679619995
9679626282
9679632934
9679639099
9679646301
9679651733
9679661072
9679666931
9679673401
9679679321
9679685608
9679692321
9679700683
9679711059
9679717163
9679723755
9679729858
9679736999
9679743103
9679749511
9679756286
9679762573
9679769104
9679775695
9679780273
9679788207
9679795715
9679800475
9679808654
9679813964
9679821716
9679827087
9679834716
9679840881
9679846923
9679852599
9679861022
9679867126
9679873779
9679880065
9679886169
9679892333
9679899596
9679905883
9679911803
9679918029
9679924743
9679932250
9679940490
9679950377
9679957946
9679966491
9679975280
9679982665
9679989379
9679996581
9680004149
9680009765
9680017211
9680023192
9680030822
9680036864
9680043029
9680048705
9680057067
9680063536
9680069762
9680075255
9680081359
9680088683
9680094847
9680102904
9680109801
9680114562
9680122313
9680129149
9680135924
9680141356
9680148497
9680156493
9680162779
9680168456
9680176695
9680183348
9680189696
9680195860
9680203856
9680209776
9680216246
9680222105
9680229979
9680236143
9680243712
9680249937
9680259520
9680266050
9680274656
9680281187
9680288755
9680295347
9680301878
9680310240
9680317930
9680323729
9680331968
9680337706
9680346250
9680351927
9680361753
9680368223
9680376280
9680384825
9680390928
9680399839
9680407591
9680416075
9680424131
9680431028
9680439085
9680446958
9680455625
9680463621
9680471555
9680479185
9680486387
9680492673
9680502134
9680508359
9680516843
9680525815
9680532224
9680541318
9680549863
9680555845
9680565000
9680570920
9680579404
9680587461
9680596189
9680603635
9680610105
9680617551
9680623777
9680630490
9680637632
9680646360
9680663816
9680668271
9680675595
9680687436
9680695859
9680702939
9680710141
9680716245
9680722043
9680728757
9680736264
9680743039
9680749265
9680756162
9680763791
9680768979
9680776425
9680782529
9680787778
9680795285
9680800778
9680806821
9680813595
9680819516
9680825192
9680830563
9680836606
9680843503
9680849667
9680855038
9680862057
9680867611
9680875180
9680881405
9680886898
9680893307
9680899228
9680904171
9680909359
9680914547
9680920407
9680926510
9680932003
9680938778
9680942868
9680948849
9680954708
9680959591
9680965512
9680972286
9680977535
9680981991
9680988278
9680992794
9680998715
9681004818
9681010983
9681016293
9681022518
9681028195
9681033077
9681038815
9681043881
9681049862
9681055843
9681061581
9681067867
9681073116
9681079037
9681084347
9681089901
9681096249
9681102352
9681110165
9681114986
9681121883
9681129024
9681133175
9681140743
9681145443
9681153133
9681158565
9681164364
9681169979
9681176632
9681182979
9681189144
9681196224
9681203243
9681212032
9681219112
9681228084
9681234493
9681242855
9681250362
9681257930
9681268062
9681276790
9681284908
9681292049
9681298824
9681304927
9681312312
9681317867
9681323543
9681329952
9681337581
9681344234
9681350215
9681357173
9681365352
9681371333
9681378719
9681385860
9681391109
9681399104
9681403987
9681411311
9681417232
9681423396
9681431636
9681438472
9681446162
9681451106
9681458491
9681464106
9681470454
9681477229
9681483210
9681489375
9681495784
9681501704
9681508906
9681513057
9681519954
9681528437
9681535762
9681543025
9681547847
9681554133
9681561152
9681567622
9681573725
9681579524
9681585383
9681592524
9681599665
9681606440
9681613825
9681619868
9681627009
9681634455
9681641169
9681647761
9681653498
9681660639
9681667536
9681675043
9681679621
9681687922
9681695124
9681700800
9681707392
9681715876
9681722956
9681729181
9681736811
9681741816
9681749323
9681755182
9681764094
9681768854
9681776239
9681784296
9681789972
9681796503
9681810602
9681817438
9681828669
9681838739
9681847101
9681855707
9681860773
9681868402
9681874323
9681881952
9681889276
9681895746
9681904413
9681910333
9681918146
9681924616
9681934869
9681941034
9681948663
9681958246
9681963556
9681970819
9681978265
9681986017
9681992853
9681999506
9682007928
9682013177
9682020624
9682026361
9682034662
9682042901
9682050897
9682058648
9682066217
9682074212
9682082208
9682090631
9682098443
9682105462
9682113702
9682119683
9682128411
9682137139
9682143426
9682153253
9682161859
9682168756
9682176751
9682183099
9682193292
9682199883
9682209649
9682215753
9682222833
9682228936
9682233514
9682241753
9682248589
9682254876
9682260796
9682267144
9682273797
9682279229
9682285943
9682292107
9682298455
9682304925
9682310845
9682317559
9682324761
9682329705
9682336968
9682343499
9682349846
9682355034
9682361992
9682368462
9682374810
9682381768
9682387932
9682394768
9682400750
9682407341
9682414238
9682422844
9682429863
9682436943
9682442681
9682448601
9682453850
9682461235
9682467400
9682472893
9682480034
9682484734
9682491448
9682496330
9682503716
9682509148
9682514946
9682520134
9682526726
9682530876
9682537651
9682543816
9682550041
9682556694
9682561455
9682568657
9682573967
9682579521
9682584892
9682590813
9682596123
9682602043
9682607536
9682613640
9682620598
9682625114
9682632194
9682638725
9682645561
9682651970
9682658317
9682663200
9682670891
9682676628
9682682060
9682687675
9682694694
9682702690
9682709282
9682715263
9682720695
9682727104
9682733207
9682740837
9682747123
9682751579
9682757255
9682764335
9682770317
9682776908
9682783256
9682788627
9682794975
9682801444
9682807609
9682812736
9682818900
9682827140
9682832633
9682838493
9682844840
9682850394
9682856986
9682862601
9682867789
9682875297
9682881522
9682888480
9682893058
9682899406
9682905448
9682911613
9682918204
9682925162
9682931815
9682937369
9682942374
9682949027
9682953971
9682960929
9682966483
9682976188
9682982718
9682989432
9682995841
9683003470
9683010184
9683016959
9683024283
9683030875
9683036978
9683042288
9683049124
9683054068
9683061881
9683068167
9683075919
9683082388
9683088370
9683092581
9683099173
9683105399
9683111380
9683118094
9683124686
9683130606
9683135123
9683142508
9683147452
9683153983
9683158987
9683167654
9683173758
9683179251
9683184256
9683190726
9683195669
9683203543
9683209769
9683216604
9683223135
9683229056
9683233267
9683240530
9683246328
9683252432
9683260306
9683265432
9683271658
9683277762
9683284597
9683291067
9683296927
9683304434
9683312429
9683318716
9683324820
9683330923
9683337454
9683343679
9683349417
9683355215
9683364614
9683371267
9683377737
9683384146
9683388967
9683396780
9683401540
9683410452
9683417349
9683424123
9683429678
9683436147
9683444326
9683450796
9683457815
9683464651
9683470693
9683477773
9683484731
9683491018
9683498098
9683502737
9683510366
9683517995
9683526357
9683531850
9683539296
9683546132
9683552297
9683558339
9683565542
9683572011
9683581289
9683588735
9683595327
9683601796
9683609487
9683617238
9683627370
9683635610
9683645925
9683653615
9683662160
9683668874
9683677052
9683682485
9683688466
9683694386
9683703175
9683709218
9683717397
9683721242
9683728749
9683734364
9683741811
9683751088
9683757619
9683765187
9683772816
9683780141
9683787160
9683794545
9683800587
9683807606
9683815541
9683822499
9683831471
9683837636
9683843739
9683848805
9683856434
9683863453
9683870289
9683875172
9683881520
9683886280
9683893544
9683898915
9683904591
9683910511
9683917225
9683923207
9683928395
9683934010
9683940357
9683945912
9683951954
9683957569
9683964771
9683969227
9683977345
9683984791
9683989918
9683997913
9684004139
9684010731
9684016956
9684025013
9684030323
9684035389
9684041615
9684047962
9684054615
9684061085
9684067127
9684072498
9684078297
9684083362
9684088428
9684093616
9684099476
9684106739
9684112903
9684118763
9684122486
9684129017
9684136036
9684142566
9684148670
9684153187
9684159656
9684164417
9684169849
9684177417
9684182911
9684188587
9684192493
9684199207
9684204151
9684209461
9684216846
9684223621
9684230518
9684238391
9684242481
9684250232
9684257068
9684262744
9684269153
9684275989
9684282092
9684287341
9684293811
9684301441
9684308276
9684313770
9684319629
9684325732
9684331836
9684338184
9684345081
9684350513
9684358142
9684364673
9684370898
9684380176
9684387561
9684391894
9684399036
9684404285
9684412280
9684420520
9684426990
9684434497
9684440539
9684447131
9684453723
9684459887
9684466418
9684472155
9684478930
9684484790
9684492785
9684500659
9684505542
9684513110
9684520312
9684526843
9684534533
9684540148
9684547534
9684555041
9684561755
9684568530
9684576403
9684581591
9684588976
9684594103
9684600817
9684607775
9684614001
9684620226
9684628832
9684633471
9684640246
9684647509
9684652819
9684659289
9684665270
9684673693
9684679919
9684686327
9684693224
9684700060
9684706652
9684713305
9684719652
9684726366
9684733568
9684742174
9684748461
9684756029
9684762194
9684769945
9684777514
9684785997
9684790941
9684797350
9684804796
9684809984
9684817003
9684824327
9684831041
9684836717
9684845751
9684852892
9684859545
9684866197
9684871080
9684880541
9684888536
9684893846
9684900621
9684905931
9684914232
9684921251
9684926866
9684935594
9684944017
9684950059
9684958543
9684964098
9684973497
9684981248
9684988878
9684995775
9685001573
9685008897
9685016588
9685022813
9685032396
9685041002
9685049730
9685056321
9685063768
9685071458
9685079210
9685088548
9685097642
9685104356
9685113633
9685120103
9685128282
9685134873
9685144334
9685153611
9685160386
9685168748
9685174424
9685183640
9685189561
9685201096
9685208054
9685216233
9685223924
9685229661
9685238328
9685244675
9685254258
9685263413
9685269456
9685278489
9685287217
9685294968
9685304307
9685312546
9685323533
9685329331
9685339219
9685348679
9685354722
9685363877
9685372849
9685383103
9685391159
9685399826
9685408738
9685415695
9685423203
9685428574
9685433762
9685439377
9685446762
9685452194
9685458420
9685464890
9685470749
9685477707
9685483994
9685489609
9685494187
9685500412
9685506699
9685512680
9685519211
9685525375
9685530808
9685537277
9685542221
9685551071
9685557053
9685561569
9685569199
9685574203
9685580002
9685587814
9685594711
9685600571
9685606674
9685611740
9685617721
9685623520
9685630600
9685636459
9685640548
9685647506
9685652878
9685659408
9685665146
9685675399
9685681503
9685687301
9685692489
9685697006
9685704330
9685709640
9685715194
9685721359
9685726974
9685731246
9685738510
9685745162
9685750595
9685756088
9685762191
9685766586
9685773849
9685780563
9685785751
9685791061
9685798934
9685804305
9685811507
9685817062
9685823837
9685830917
9685836227
9685842757
9685848006
9685855209
9685860946
9685867232
9685874801
9685882735
9685891280
9685896956
9685907149
9685914046
9685920638
9685926986
9685933883
9685940658
9685947005
9685953536
9685962142
9685967757
9685973922
9685981307
9685988509
9685993758
9686002242
9686009078
9686015425
9686021529
9686029647
9686035750
9686043563
9686049239
9686055525
9686063338
9686070113
9686075545
9686082259
9686089156
9686096663
9686103499
9686110518
9686115828
9686120833
9686128340
9686134383
9686138777
9686146468
9686155440
9686161787
9686170027
9686175276
9686182173
9686189558
9686196150
9686202864
9686210432
9686215803
9686222456
9686230391
9686237410
9686244246
9686248091
9686257124
9686263228
9686268904
9686276533
9686284956
9686289412
9686296186
9686302961
9686308088
9686315046
9686321333
9686327986
9686335554
9686342329
9686349226
9686355879
9686363203
9686369673
9686377058
9686384321
9686391035
9686400068
9686407636
9686416425
9686430524
9686435163
9686445173
9686452375
9686459821
9686469404
9686475080
9686481122
9686487775
9686494489
9686501508
9686508039
9686514203
9686522077
9686530134
9686536359
9686545331
9686553815
9686560651
9686567365
9686574384
9686580915
9686587018
9686596418
9686604657
9686611066
9686619550
9686624982
9686634198
9686641339
9686648419
9686657331
9686665936
9686674970
9686684552
9686693097
9686702130
9686709393
9686716901
9686726361
9686735516
9686742841
9686751324
9686761151
9686768109
9686775189
9686781598
9686788739
9686798260
9686804181
9686814129
9686822552
9686831158
9686838482
9686846356
9686853497
9686860150
9686869244
9686877301
9686884259
9686892742
9686900006
9686906536
9686912762
9686922161
9686929913
9686936321
9686942547
9686950054
9686955120
9686962017
9686968304
9686973614
9686979656
9686985943
9686990704
9686997356
9687004070
9687011150
9687017986
9687023052
9687029522
9687038860
9687044170
9687053142
9687059612
9687068279
9687072491
9687080547
9687086346
9687092571
9687099712
9687107586
9687113567
9687118816
9687124798
9687130291
9687135112
9687141765
9687147686
9687153362
9687158672
9687165020
9687170513
9687176738
9687182903
9687188274
9687192730
9687199016
9687205547
9687211040
9687217266
9687222270
9687228130
9687234111
9687238567
9687245586
9687251872
9687257732
9687264385
9687270122
9687274638
9687279399
9687286479
9687293376
9687297771
9687302959
9687307536
9687315532
9687322612
9687328593
9687334392
9687340800
9687345378
9687351359
9687358745
9687364909
9687370280
9687377788
9687384379
9687393291
9687400249
9687406047
9687412333
9687419475
9687426066
9687431682
9687439494
9687446696
9687452800
9687458720
9687464396
9687472148
9687477763
9687484355
9687492656
9687499308
9687505778
9687513529
9687519694
9687526591
9687541728
9687550395
9687557047
9687564738
9687571696
9687578227
9687586833
9687594950
9687601603
9687609171
9687615092
9687622599
9687628397
9687635783
9687642191
9687648173
9687656779
9687662150
9687669840
9687674784
9687681376
9687686930
9687693461
9687701700
9687706644
9687713541
9687721781
9687726603
9687734171
9687741373
9687747721
9687756205
9687761332
9687767435
9687775553
9687782328
9687788370
9687795206
9687802957
9687807535
9687815164
9687819010
9687829019
9687837503
9687841532
9687849710
9687856302
9687861917
9687868204
9687875406
9687882669
9687887674
9687894022
9687899698
9687905801
9687912881
9687920511
9687928690
9687935281
9687942300
9687950906
9687957864
9687965188
9687973367
9687978677
9687986062
9687992837
9687999612
9688008340
9688014749
9688023782
9688030252
9688039285
9688048135
9688055337
9688064859
9688072976
9688080606
9688086953
9688095620
9688105203
9688112527
9688124551
9688132607
9688141152
9688149758
9688157083
9688165017
9688172646
9688180337
9688188088
9688197060
9688205422
9688212685
9688220986
9688227151
9688235879
9688243752
9688250893
9688258462
9688266030
9688274758
9688282326
9688291665
9688298623
9688308205
9688314431
9688322182
9688328652
9688338295
9688347390
9688355080
9688363198
9688369118
9688376809
9688384682
9688392983
9688401650
9688409401
9688417519
9688426491
9688431984
9688439308
9688446510
9688454933
9688462380
9688467079
9688474587
9688479958
9688486488
9688493568
9688499062
9688503822
9688511269
9688516090
9688522194
9688527870
9688534340
9688539528
9688547707
9688552467
9688558571
9688565956
9688570473
9688577492
9688582863
9688588417
9688595070
9688601234
9688608070
9688614113
9688621559
9688625953
9688631324
9688637794
9688642860
9688651588
9688657386
9688663551
9688669227
9688674476
9688679359
9688686683
9688698280
9688706031
9688711158
9688717933
9688725501
9688732582
9688738258
9688744728
9688749244
9688756080
9688762794
9688769935
9688776832
9688782203
9688788368
9688793556
9688800636
9688806251
9688813636
9688820045
9688825416
9688832008
9688837745
9688843543
9688851966
9688857642
9688863502
9688869361
9688873817
9688881080
9688886939
9688893958
9688900245
9688906165
