10208463978
10208472157
10208478871
10208484242
10208494190
10208500355
10208508900
10208515675
10208521351
10208531300
10208538258
10208545643
10208553577
10208561512
10208567493
10208574879
10208580860
10208588489
10208596363
10208604175
10208611683
10208617054
10208623707
10208631580
10208637562
10208644886
10208651172
10208658191
10208665882
10208672901
10208679004
10208686512
10208694812
10208701893
10208709034
10208714588
10208722583
10208730640
10208737781
10208745471
10208752246
10208758167
10208767749
10208776233
10208782642
10208789295
10208797595
10208804798
10208813281
10208821887
10208828906
10208835498
10208842456
10208850818
10208858997
10208866565
10208872913
10208880847
10208889148
10208896777
10208903308
10208912280
10208920032
10208928515
10208936328
10208943713
10208951709
10208959338
10208966601
10208974841
10208982592
10208990283
10208998034
10209006335
10209013415
10209021350
10209028735
10209035449
10209042834
10209050646
10209058337
10209065356
10209072741
10209078967
10209084521
10209091113
10209099413
10209108996
10209114977
10209123278
10209128893
10209137255
10209142870
10209151598
10209157763
10209166369
10209175280
10209181933
10209190111
10209195788
10209203966
10209213122
10209219225
10209227587
10209234545
10209242846
10209249743
10209257921
10209266588
10209273546
10209279406
10209287584
10209293749
10209302965
10209309557
10209316820
10209325304
10209331835
10209339281
10209347032
10209354479
10209361864
10209370409
10209376207
10209384386
10209391954
10209399400
10209407884
10209414659
10209423692
10209429796
10209439256
10209445543
10209453600
10209462144
10209468614
10209477342
10209484483
10209492052
10209498094
10209504259
10209513841
10209521104
10209529100
10209537401
10209544847
10209553514
10209560655
10209567674
10209576097
10209583970
10209592881
10209602525
10209609056
10209616258
10209624864
10209632127
10209639573
10209648179
10209656114
10209662950
10209669847
10209676499
10209686021
10209695603
10209703111
10209710923
10209718675
10209726548
10209733567
10209741502
10209747971
10209760423
10209767380
10209774705
10209783066
10209790513
10209796860
10209806321
10209814255
10209824631
10209832078
10209840745
10209848618
10209856492
10209864792
10209871201
10209879990
10209887070
10209895676
10209903061
10209911179
10209918381
10209927658
10209934738
10209944016
10209950608
10209957993
10209966904
10209975510
10209985398
10209992172
10209999924
10210007248
10210014389
10210023056
10210029404
10210038132
10210047714
10210055649
10210062668
10210071457
10210077988
10210085678
10210094772
10210105575
10210113388
10210120285
10210126938
10210133896
10210141647
10210148727
10210157089
10210165329
10210174484
10210181991
10210189132
10210196151
10210204635
10210214218
10210221359
10210228988
10210237899
10210245468
10210252670
10210259567
10210271285
10210279830
10210286971
10210294662
10210302963
10210311508
10210319808
10210327865
10210335494
10210342391
10210351119
10210359481
10210365340
10210375533
10210382247
10210388900
10210397933
10210405807
10210412459
10210420882
10210430465
10210437423
10210446578
10210453719
10210461348
10210468001
10210478499
10210484542
10210494246
10210500289
10210509139
10210517073
10210523360
10210529952
10210538253
10210547652
10210555342
10210563399
10210570113
10210577742
10210584395
10210591780
10210600142
10210607344
10210615035
10210622054
10210628890
10210636641
10210644209
10210652083
10210659651
10210667708
10210675337
10210682661
10210690535
10210698836
10210707442
10210716536
10210724043
10210731917
10210738508
10210746077
10210754439
10210762251
10210770063
10210778914
10210786787
10210794111
10210802229
10210810408
10210818647
10210826521
10210833113
10210841658
10210849043
10210857954
10210865278
10210875715
10210882856
10210890058
10210897077
10210906477
10210913374
10210921369
10210930952
10210939375
10210947614
10210955976
10210963056
10210970808
10210977155
10210982709
10210989606
10210994672
10211003339
10211009321
10211016767
10211022138
10211027814
10211037397
10211044721
10211058271
10211066083
10211074079
10211082135
10211089460
10211094281
10211101178
10211107526
10211115277
10211121320
10211128278
10211134137
10211148053
10211155377
10211170880
10211184003
10211191144
10211198956
10211208783
10211215375
10211221417
10211229657
10211234967
10211242780
10211249860
10211257672
10211265729
10211272870
10211281354
10211288006
10211294781
10211302289
10211307416
10211315899
10211321637
10211328534
10211333844
10211342267
10211348065
10211355206
10211362591
10211369549
10211376873
10211383587
10211391095
10211398785
10211405011
10211410687
10211416485
10211422833
10211433270
10211439984
10211446697
10211453167
10211459149
10211466961
10211473736
10211483624
10211490948
10211497540
10211503765
10211512493
10211518108
10211525433
10211535259
10211542095
10211548687
10211555767
10211562725
10211569439
10211576092
10211583904
10211591350
10211598003
10211606243
10211611553
10211619732
10211625591
10211634075
10211642498
10211650188
10211656780
10211663982
10211671245
10211679424
10211685283
10211693218
10211701824
10211708416
10211715496
10211723979
10211732158
10211739360
10211748943
10211756511
10211767436
10211775676
10211784038
10211792339
10211800029
10211810100
10211819804
10211828777
10211836772
10211843547
10211852885
10211862651
10211870097
10211877605
10211884563
10211890483
10211897197
10211902690
10211909770
10211915874
10211927104
10211933513
10211940288
10211945781
10211955668
10211962504
10211968974
10211974711
10211985209
10211992472
10211999308
10212005290
10212011210
10212017436
10212025187
10212033427
10212040629
10212047404
10212053324
10212059489
10212066569
10212074626
10212081950
10212088114
10212096354
10212102763
10212108561
10212115580
10212121500
10212130228
10212135966
10212143351
10212153117
10212160380
10212167338
10212173319
10212179056
10212184794
10212191080
10212196512
10212201456
10212208597
10212215311
10212220377
10212226542
10212231486
10212237589
10212242655
10212250284
10212255838
10212262003
10212267496
10212276407
10212282389
10212288187
10212295206
10212300638
10212306742
10212314737
10212320169
10212326273
10212331766
10212338419
10212344339
10212351847
10212357645
10212362589
10212369486
10212375101
10212381571
10212387125
10212393778
10212398477
10212403848
10212410257
10212415201
10212423441
10212434000
10212439493
10212445413
10212453409
10212458597
10212464639
10212471780
10212477640
10212483316
10212490030
10212494852
10212501932
10212506326
10212513406
10212518716
10212525003
10212530374
10212535257
10212541482
10212549051
10212554544
10212560708
10212566507
10212572305
10212579080
10212584756
10212590066
10212596170
10212602090
10212609964
10212614968
10212621438
10212626504
10212634500
10212639993
10212645486
10212651956
10212657754
10212664346
10212669656
10212675759
10212680886
10212686257
10212691567
10212698403
10212704751
10212709634
10212715737
10212720376
10212727578
10212733071
10212740273
10212746682
10212753335
10212759011
10212765359
10212770913
10212776223
10212783364
10212789345
10212796487
10212801858
10212808877
10212814858
10212820046
10212826333
10212833596
10212839272
10212846840
10212852761
10212857766
10212864968
10212870156
10212875893
10212883339
10212889443
10212894936
10212902016
10212907204
10212912880
10212918740
10212924355
10212930947
10212938332
10212942848
10212950051
10212956703
10212962258
10212968361
10212973610
10212982582
10212988991
10213000099
10213006264
10213014748
10213021767
10213029213
10213040565
10213047035
10213055031
10213062782
10213069130
10213075416
10213084206
10213089088
10213095497
10213101234
10213108681
10213115944
10213121559
10213128944
10213135292
10213140236
10213147865
10213155616
10213161781
10213168068
10213174293
10213180702
10213186744
10213192970
10213199379
10213207008
10213213111
10213219398
10213225502
10213232521
10213238563
10213244483
10213250587
10213256812
10213264442
10213269508
10213275672
10213282142
10213289710
10213294227
10213301856
10213307838
10213313941
10213319434
10213327369
10213332801
10213340614
10213346900
10213352454
10213357581
10213365394
10213371619
10213379371
10213386024
10213391517
10213398047
10213405250
10213410560
10213418250
10213423621
10213431312
10213437659
10213444129
10213450293
10213455481
10213463416
10213473121
10213479895
10213487098
10213493323
10213500830
10213509009
10213515845
10213522071
10213529456
10213535681
10213542822
10213551978
10213557654
10213566321
10213572913
10213579077
10213586035
10213592993
10213599585
10213608557
10213613135
10213621680
10213627112
10213635840
10213642187
10213649329
10213657202
10213669836
10213678747
10213685889
10213694922
10213702429
10213712073
10213719641
10213728308
10213734594
10213740637
10213747290
10213756201
10213761877
10213769751
10213775793
10213782385
10213788671
10213795385
10213801123
10213806555
10213815100
10213820898
10213826696
10213835058
10213840490
10213846350
10213853491
10213860266
10213866674
10213872411
10213879308
10213884863
10213890722
10213897741
10213902929
10213909887
10213915258
10213922094
10213929601
10213935217
10213941137
10213947973
10213954015
10213959508
10213967260
10213972753
10213978795
10213985631
10213991613
10213998205
10214004064
10214010351
10214016271
10214022313
10214027685
10214034459
10214039586
10214046544
10214052892
10214057409
10214063573
10214070592
10214076024
10214081578
10214088414
10214093908
10214099889
10214106542
10214110814
10214117772
10214124059
10214128942
10214134740
10214139623
10214147862
10214153417
10214158666
10214164281
10214170629
10214175511
10214180455
10214185521
10214192113
10214198033
10214202733
10214209020
10214214085
10214219273
10214225743
10214232396
10214238072
10214248936
10214258458
10214267918
10214273717
10214282384
10214288243
10214295079
10214302708
10214310093
10214316746
10214324132
10214328526
10214335606
10214341649
10214346959
10214353795
10214359044
10214365635
10214372960
10214378697
10214385350
10214392552
10214399205
10214404942
10214411595
10214418736
10214424839
10214430393
10214437657
10214443150
10214449131
10214457432
10214465244
10214471409
10214479038
10214484776
10214491978
10214498020
10214505100
10214511265
10214517979
10214523960
10214531040
10214536350
10214543247
10214548984
10214556370
10214562046
10214570896
10214577305
10214583286
10214589756
10214596348
10214601780
10214609226
10214614963
10214620517
10214627170
10214635288
10214641208
10214647129
10214655246
10214662021
10214667820
10214674411
10214680332
10214686924
10214692539
10214701389
10214707309
10214713169
10214719089
10214726596
10214731723
10214737949
10214745212
10214751193
10214758762
10214764194
10214769748
10214777744
10214783786
10214791843
10214798068
10214803684
10214811191
10214816562
10214822665
10214829623
10214835605
10214843295
10214849094
10214857333
10214863620
10214872409
10214878879
10214885715
10214892184
10214899447
10214907443
10214913058
10214918734
10214927340
10214933139
10214938693
10214946444
10214952670
10214960177
10214966342
10214972018
10214978305
10214985080
10214991305
10214999667
10215005770
10215011996
10215017611
10215022982
10215030245
10215036166
10215042086
10215050509
10215056002
10215062594
10215068026
10215075533
10215080050
10215089816
10215096713
10215102938
10215108675
10215116183
10215121615
10215128512
10215137423
10215143160
10215150484
10215156466
10215162874
10215171419
10215178499
10215182101
10215190890
10215199373
10215207125
10215213595
10215220675
10215228548
10215235750
10215241610
10215248140
10215255343
10215264498
10215272188
10215280672
10215287264
10215293306
10215301485
10215307588
10215314730
10215324251
10215332002
10215338411
10215344393
10215353853
10215362398
10215369966
10215379122
10215385652
10215391512
10215400057
10215406709
10215412813
10215418855
10215427278
10215434846
10215441988
10215449434
10215457613
10215462190
10215472139
10215478975
10215485017
10215494234
10215500825
10215524446
10215532014
10215542146
10215547212
10215556001
10215562288
10215567903
10215575349
10215580903
10215586824
10215592988
10215598970
10215606233
10215612092
10215617463
10215624909
10215630769
10215636323
10215643159
10215648347
10215654939
10215659944
10215665742
10215671967
10215678010
10215682893
10215688935
10215696015
10215701508
10215707551
10215713349
10215719025
10215725922
10215730866
10215736237
10215742585
10215748078
10215754426
10215760895
10215766267
10215772675
10215779450
10215785431
10215790925
10215797577
10215802582
10215808991
10215815156
10215820344
10215825959
10215831147
10215837616
10215844147
10215850190
10215855133
10215859894
10215867340
10215872467
10215877900
10215885590
10215889862
10215896942
10215903534
10215908417
10215914276
10215923310
10215928864
10215934418
10215941132
10215946869
10215951996
10215958038
10215965058
10215972382
10215977448
10215984284
10215989777
10215996368
10216001129
10216010468
10216015839
10216022430
10216030060
10216034393
10216041962
10216047211
10216055328
10216062958
10216070160
10216076935
10216082550
10216089081
10216097137
10216103363
10216109955
10216121368
10216127716
10216133941
10216139312
10216147003
10216152130
10216160064
10216167389
10216173004
10216180267
10216186004
10216193267
10216198883
10216204620
10216212005
10216218231
10216226104
10216232147
10216237457
10216245147
10216251434
10216257781
10216263946
10216271819
10216277496
10216283660
10216290557
10216296600
10216302886
10216309173
10216315948
10216322295
10216329681
10216336028
10216342315
10216348540
10216354400
10216362273
10216369475
10216375640
10216381072
10216388885
10216395537
10216401275
10216407561
10216413970
10216422149
10216427825
10216435332
10216440947
10216447112
10216452788
10216459868
10216465545
10216473662
10216479277
10216484893
10216492400
10216497527
10216502837
10216508757
10216515959
10216524626
10216529814
10216535796
10216541838
10216547576
10216554289
10216559966
10216567595
10216573515
10216578459
10216585478
10216591277
10216597014
10216603117
10216608794
10216614775
10216622099
10216627165
10216634428
10216641936
10216649443
10216655424
10216660429
10216667814
10216673064
10216678740
10216690092
10216697722
10216707182
10216715422
10216722380
10216731230
10216737516
10216745756
10216753569
10216759855
10216766020
10216773222
10216779142
10216786650
10216792387
10216801359
10216808012
10216814787
10216821256
10216827543
10216834013
10216842069
10216847318
10216854887
10216862394
10216868131
10216875517
10216881254
10216887174
10216894865
10216900297
10216905851
10216916288
10216921720
10216927824
10216936674
10216941068
10216949186
10216956083
10216962125
10216969633
10216976468
10216984159
10216990201
10216998075
10217006131
10217012174
10217018400
10217026578
10217033170
10217039823
10217047025
10217055387
10217061490
10217066922
10217076139
10217081754
10217090604
10217096219
10217103849
10217108487
10217116117
10217120633
10217127530
10217134244
10217139188
10217146024
10217150968
10217156461
10217162747
10217167508
10217174344
10217182462
10217187466
10217192166
10217198758
10217204129
10217210172
10217215482
10217221890
10217227505
10217234891
10217240262
10217245694
10217251065
10217257168
10217262601
10217268643
10217275723
10217280606
10217288052
10217293606
10217298489
10217304898
10217309903
10217321194
10217329739
10217339444
10217346096
10217352139
10217360318
10217365933
10217372647
10217378262
10217384854
10217389187
10217396023
10217401211
10217407803
10217415737
10217420376
10217427151
10217433132
10217438381
10217444546
10217451565
10217458584
10217464565
10217469997
10217476162
10217481594
10217489346
10217497036
10217502590
10217507412
10217514431
10217520046
10217525478
10217531948
10217539089
10217544033
10217550625
10217556179
10217563869
10217569485
10217575893
10217583278
10217588833
10217594509
10217600429
10217607448
10217613369
10217618618
10217626430
10217631557
10217639309
10217644436
10217651516
10217657619
10217663784
10217670314
10217677089
10217683620
10217690822
10217696376
10217702175
10217708095
10217713954
10217721523
10217729152
10217734950
10217741481
10217745693
10217753078
10217758571
10217766506
10217772121
10217779872
10217786464
10217792873
10217799037
10217806422
10217812648
10217817653
10217825221
10217833156
10217838710
10217845546
10217851771
10217857448
10217866420
10217873195
10217879420
10217886439
10217893275
10217899989
10217908839
10217917445
10217925197
10217935817
10217942714
10217950892
10217956935
10217962550
10217970118
10217975550
10217983241
10217989100
10217996974
10218002345
10218009059
10218016078
10218022181
10218030116
10218036524
10218043177
10218049769
10218057337
10218063868
10218071314
10218077723
10218084071
10218091517
10218098841
10218104639
10218112635
10218118800
10218126612
10218132654
10218140040
10218147364
10218155970
10218162501
10218168726
10218174830
10218180628
10218189295
10218195521
10218203333
10218208826
10218215540
10218221888
10218228296
10218236353
10218242456
10218249964
10218256495
10218263941
10218270472
10218277063
10218284265
10218291773
10218299585
10218306787
10218314783
10218320886
10218328821
10218335291
10218343836
10218349573
10218357385
10218363611
10218370325
10218377405
10218383752
10218393518
10218400476
10218407495
10218415186
10218422632
10218430933
10218437341
10218448022
10218453882
10218462671
10218468164
10218475427
10218481592
10218490564
10218503320
10218511987
10218521142
10218529382
10218537744
10218545861
10218554284
10218561670
10218570947
10218577783
10218584008
10218590966
10218598718
10218605981
10218612390
10218619348
10218627038
10218633874
10218641625
10218649011
10218655236
10218662805
10218671410
10218678918
10218684838
10218691247
10218697961
10218705651
10218714379
10218720788
10218727380
10218734826
10218742516
10218749535
10218754418
10218761193
10218766686
10218773461
10218778771
10218784020
10218790856
10218796837
10218805260
10218811303
10218814538
10218823815
10218830346
10218836510
10218841515
10218850182
10218855248
10218861229
10218868676
10218874718
10218881066
10218888573
10218894921
10218900292
10218907128
10218912560
10218917992
10218925621
10218931359
10218936852
10218944847
10218950401
10218955773
10218962425
10218968224
10218976097
10218981285
10218987694
10218993126
10218998619
10219003807
10219010826
10219015770
10219022545
10219028404
10219033592
10219040062
10219045189
10219051536
10219056358
10219063804
10219070213
10219075584
10219081260
10219086509
10219092491
10219099266
10219105613
10219112205
10219119041
10219128502
10219135276
10219142051
10219148765
10219157554
10219164085
10219171165
10219177696
10219184776
10219190513
10219199302
10219206321
10219212181
10219218772
10219224876
10219231162
10219238304
10219245323
10219250266
10219256431
10219263450
10219270530
10219276450
10219282005
10219289451
10219295066
10219301963
10219307151
10219314170
10219319419
10219325706
10219333152
10219338218
10219343406
10219351768
10219357566
10219363669
10219370200
10219376365
10219382834
10219389243
10219395774
10219402182
10219408896
10219415244
10219422629
10219428977
10219436118
10219442221
10219448813
10219455039
10219461020
10219468650
10219475913
10219481162
10219488181
10219493735
10219501609
10219507163
10219513816
10219519431
10219528037
10219533713
10219539145
10219546469
10219552084
10219560324
10219566733
10219572592
10219579916
10219585715
10219594015
10219601218
10219606589
10219613425
10219621176
10219626669
10219632407
10219641623
10219648520
10219655539
10219661520
10219669638
10219675131
10219681418
10219688925
10219695089
10219700827
10219708639
10219714743
10219721029
10219726950
10219734884
10219740866
10219747763
10219754843
10219767477
10219774374
10219781271
10219787985
10219794821
10219804952
10219811056
10219816793
10219824606
10219830709
10219836813
10219843710
10219849996
10219856649
10219863058
10219870016
10219876241
10219882833
10219889059
10219895834
10219903585
10219908834
10219914999
10219921407
10219929159
10219934225
10219941915
10219949544
10219955282
10219961873
10219969625
10219975057
10219980550
10219987508
10219993368
10220000631
10220006551
10220012838
10220020345
10220027181
10220032857
10220038900
10220046285
10220054280
10220062398
10220068685
10220073690
10220080098
10220087606
10220095906
10220103841
10220109517
10220115926
10220124471
10220131001
10220138448
10220144612
10220152364
10220158101
10220164571
10220171834
10220178120
10220183797
10220190327
10220198323
10220204365
10220212300
10220221394
10220228108
10220236897
10220243123
10220252339
10220260762
10220267354
10220274190
10220283284
10220290547
10220296223
10220302571
10220311299
10220319844
10220328144
10220335530
10220341877
10220349141
10220357319
10220365071
10220373188
10220380513
10220387287
10220394856
10220401570
10220409626
10220418293
10220426411
10220433613
10220441120
10220452656
10220459370
10220465656
10220472553
10220480244
10220486530
10220492329
10220498920
10220504841
10220510822
10220518269
10220522663
10220530292
10220535358
10220542805
10220549213
10220554584
10220562092
10220567402
10220573627
10220580402
10220586139
10220593342
10220598591
10220604084
10220610675
10220616108
10220622516
10220630451
10220636371
10220640888
10220649128
10220654132
10220659565
10220665241
10220672565
10220677997
10220683490
10220690021
10220695636
10220701679
10220707172
10220713153
10220718646
10220726032
10220730975
10220736347
10220742816
10220747699
10220754840
10220760455
10220767169
10220772845
10220779498
10220784869
10220790790
10220796161
10220801166
10220807941
10220813068
10220819781
10220824603
10220829486
10220837421
10220842914
10220848224
10220854144
10220860797
10220865558
10220872455
10220877459
10220884967
10220891375
10220898333
10220904315
10220910113
10220917010
10220921771
10220929034
10220935077
10220941546
10220949542
10220956378
10220961505
10220967181
10220973773
10220979510
10220984210
10220991900
10221000689
10221010394
10221016375
10221023638
10221031878
10221039507
10221047869
10221055499
10221060626
10221068560
10221074053
10221081683
10221086932
10221094805
10221100481
10221108233
10221114458
10221120257
10221127581
10221133379
10221141741
10221147112
10221155108
10221161638
10221168047
10221175432
10221181719
10221188860
10221195025
10221201555
10221207720
10221214190
10221220354
10221227129
10221233294
10221240435
10221246172
10221253130
10221258745
10221266436
10221272478
10221278826
10221287126
10221292803
10221298357
10221307451
10221313921
10221320146
10221325701
10221333513
10221339250
10221345476
10221352373
10221358537
10221365068
10221371294
10221378191
10221384233
10221391801
10221398454
10221406267
10221411882
10221418535
10221424028
10221431474
10221437028
10221444963
10221451799
10221459611
10221466081
10221472185
10221479081
10221486162
10221494340
10221499772
10221507341
10221512956
10221518998
10221525529
10221531511
10221537736
10221545304
10221551591
10221557206
10221563981
10221571549
10221579240
10221585588
10221593339
10221599931
10221607377
10221613786
10221625199
10221637223
10221644608
10221651933
10221660722
10221667191
10221673600
10221682145
10221688981
10221696793
10221701798
10221709672
10221715226
10221723038
10221728409
10221734940
10221743912
10221750199
10221756363
10221764969
10221771622
10221777909
10221784073
10221792557
10221798478
10221805191
10221811478
10221820084
10221825577
10221834183
10221840531
10221847611
10221854019
10221860916
10221868729
10221875565
10221881485
10221890213
10221896317
10221903519
10221912369
10221921585
10221929276
10221936173
10221943253
10221950760
10221957352
10221964798
10221973160
10221980484
10221987381
10221994766
10222002762
10222010330
10222016251
10222023758
10222031875
10222039444
10222047317
10222054703
10222061661
10222069046
10222075088
10222082351
10222091446
10222098221
10222107315
10222114883
10222120681
10222126968
10222134842
10222140884
10222149246
10222156753
10222163650
10222169876
10222176528
10222182571
10222187454
10222194656
10222203018
10222209121
10222215469
10222222732
10222228530
10222234817
10222240493
10222247451
10222252944
10222260757
10222265884
10222271804
10222278640
10222284377
10222291213
10222302749
10222309035
10222315871
10222322219
10222329238
10222335464
10222342544
10222347732
10222354690
10222359755
10222366836
10222371779
10222376845
10222384841
10222391127
10222398085
10222403823
10222408950
10222416091
10222422011
10222427443
10222433364
10222440322
10222445937
10222450942
10222457167
10222463698
10222468581
10222475783
10222481337
10222487380
10222492934
10222499098
10222504531
10222510329
10222515639
10222522170
10222527663
10222533217
10222540236
10222545607
10222551100
10222556838
10222563673
10222570082
10222577162
10222582716
10222588698
10222594618
10222601027
10222606764
10222613173
10222620558
10222625258
10222632399
10222637953
10222643934
10222650404
10222657118
10222664137
10222669813
10222676832
10222682020
10222689039
10222695021
10222699965
10222707533
10222713697
10222720533
10222726027
10222731337
10222737135
10222744459
10222752699
10222758314
10222765760
10222771925
10222777967
10222783949
10222791212
10222798536
10222806227
10222812208
10222818800
10222824598
10222831251
10222837599
10222844679
10222851026
10222858228
10222863599
10222869825
10222878370
10222884718
10222893201
10222900342
10222909864
10222918592
10222925855
10222934217
10222940137
10222947584
10222952894
10222958448
10222966932
10222972303
10222977735
10222985242
10222990613
10222998792
10223005079
10223010755
10223017835
10223025037
10223031629
10223038343
10223044629
10223052014
10223060010
10223065808
10223072156
10223078809
10223085156
10223091687
10223098035
10223104993
10223111279
10223118787
10223124585
10223131543
10223137341
10223144482
10223150098
10223157971
10223163525
10223169812
10223177136
10223182507
10223189770
10223195386
10223201001
10223207287
10223214429
10223220715
10223228406
10223233777
10223239331
10223245617
10223253186
10223258862
10223264416
10223271496
10223279858
10223286084
10223291699
10223299633
10223307080
10223313427
10223321362
10223328259
10223334729
10223341626
10223347485
10223354443
10223362255
10223370922
10223376782
10223383801
10223390881
10223397534
10223403698
10223412121
10223418102
10223426586
10223431652
10223440258
10223446789
10223454723
10223460644
10223466930
10223475780
10223482250
10223488598
10223497814
10223504894
10223511364
10223517650
10223526928
10223534679
10223548168
10223555553
10223563244
10223569408
10223576366
10223586132
10223598888
10223607250
10223613659
10223621654
10223628002
10223634288
10223642345
10223649059
10223657176
10223663951
10223670238
10223678417
10223684520
10223691478
10223700328
10223706981
10223714977
10223721019
10223727184
10223735362
10223741771
10223747691
10223756297
10223764354
10223771495
10223779002
10223787425
10223793162
10223801463
10223807445
10223813914
10223821727
10223828380
10223836375
10223844615
10223851329
10223857066
10223864390
10223870006
10223877513
10223883006
10223889781
10223896006
10223904551
10223910167
10223915599
10223923106
10223929148
10223935862
10223941233
10223946665
10223953623
10223958140
10223965098
10223970164
10223977427
10223982310
10223989146
10223993785
10224000681
10224006053
10224010996
10224018626
10224024058
10224031870
10224037791
10224045481
10224051646
10224059824
10224067210
10224073679
10224078684
10224083567
10224091379
10224096812
10224102183
10224107615
10224114634
10224120432
10224125986
10224131907
10224137461
10224143564
10224149180
10224155955
10224161081
10224167978
10224173044
10224178904
10224185984
10224192576
10224198740
10224207346
10224215952
10224223154
10224229013
10224235483
10224241465
10224248178
10224254465
10224259470
10224265940
10224270944
10224277353
10224282053
10224288828
10224295908
10224300913
10224306772
10224313181
10224318918
10224326303
10224332102
10224337534
10224344492
10224349496
10224356699
10224361642
10224368845
10224374948
10224380075
10224387338
10224392404
10224398080
10224403207
10224411752
10224417795
10224423593
10224429696
10224437387
10224442514
10224448312
10224455636
10224461740
10224468087
10224474313
10224481332
10224487619
10224492990
10224500802
10224505929
10224513803
10224518930
10224526864
10224532601
10224540353
10224546273
10224553598
10224559091
10224565988
10224571237
10224579049
10224585397
10224592721
10224598885
10224604379
10224611825
10224617318
10224623666
10224629769
10224637643
10224643807
10224649239
10224657601
10224663705
10224669747
10224676461
10224684212
10224689461
10224697213
10224703683
10224708993
10224715401
10224723885
10224730172
10224737435
10224743172
10224749093
10224756722
10224762520
10224767891
10224777108
10224783028
10224790413
10224795845
10224804634
10224810311
10224819344
10224827584
10224834603
10224840767
10224847908
10224855477
10224861641
10224868172
10224874397
10224880257
10224886727
10224893807
10224899971
10224907112
10224913460
10224920540
10224926827
10224934334
10224940620
10224946419
10224954292
10224959846
10224966133
10224973274
10224979622
10224985847
10224993782
10225000069
10225005806
10225011787
10225019661
10225026069
10225031868
10225039436
10225045112
10225051887
10225059578
10225065925
10225071296
10225078254
10225087165
10225094001
10225101326
10225108345
10225115669
10225122444
10225130195
10225137092
10225143745
10225151008
10225158149
10225165046
10225172492
10225179267
10225186469
10225193366
10225199836
10225208381
10225214423
10225221626
10225229621
10225237128
10225245063
10225250556
10225259101
10225266608
10225273627
10225281013
10225287849
10225294501
10225301215
10225308967
10225315803
10225323920
10225333503
10225340827
10225346747
10225354560
10225361335
10225368293
10225376899
10225383918
10225390693
10225397162
10225406501
10225413153
10225419684
10225425483
10225434394
10225442267
10225448981
10225457770
10225464484
10225471259
10225477851
10225486456
10225498541
10225506842
10225510870
10225519293
10225527167
10225537054
10225544012
10225552069
10225560187
10225568610
10225574469
10225582220
10225589361
10225594916
10225600531
10225606940
10225615545
10225621466
10225627691
10225633551
10225640875
10225646917
10225652411
10225658270
10225664984
10225671026
10225677618
10225683538
10225689337
10225695379
10225701788
10225707647
10225714361
10225720404
10225726995
10225732977
10225739202
10225745123
10225751531
10225757513
10225763738
10225771185
10225777471
10225782964
10225789434
10225796331
10225801885
10225807440
10225814886
10225820013
10225826055
10225830755
10225837957
10225843023
10225848028
10225854009
10225861211
10225866033
10225872259
10225877996
10225882635
10225888860
10225893499
10225899847
10225906927
10225912054
10225917730
10225922613
10225927923
10225934331
10225939397
10225945928
10225951055
10225956853
10225962163
10225966741
10225971807
10225977910
10225985296
10225991155
10225996160
10226002263
10226007268
10226012883
10226017888
10226024358
10226029607
10226037053
10226043462
10226050725
10226057988
10226062932
10226071111
10226076299
10226082952
10226090947
10226099309
10226106572
10226112065
10226119511
10226128484
10226135686
10226141728
10226147588
10226153996
10226162114
10226167851
10226173894
10226181279
10226186467
10226193974
10226200322
10226205998
10226213811
10226219853
10226227482
10226233220
10226241215
10226246037
10226253727
10226258610
10226268376
10226271550
10226280766
10226286381
10226292485
10226299260
10226305424
10226312992
10226319340
10226325260
10226331364
10226337834
10226343998
10226351017
10226357304
10226363713
10226369816
10226377140
10226383183
10226388310
10226396000
10226401188
10226409000
10226414738
10226422550
10226427738
10226435612
10226442142
10226447941
10226453373
10226461246
10226467228
10226474552
10226479862
10226488956
10226494877
10226501102
10226506779
10226514469
10226521671
10226527042
10226534549
10226540531
10226547550
10226553959
10226561527
10226569462
10226574466
10226582401
10226588199
10226594059
10226601017
10226606632
10226613590
10226621402
10226627323
10226634403
10226640445
10226646121
10226653934
10226661685
10226667423
10226674137
10226679691
10226686221
10226693179
10226698673
10226707401
10226714359
10226725101
10226731204
10226738284
10226747012
10226753543
10226760745
10226767154
10226774112
10226780093
10226786624
10226792728
10226799441
10226805606
10226813785
10226820865
10226826724
10226832583
10226840579
10226846560
10226852542
10226857608
10226867312
10226874087
10226880374
10226886844
10226893069
10226899600
10226905825
10226912112
10226920352
10226926882
10226933230
10226939151
10226945376
10226952090
10226958499
10226965762
10226973269
10226979739
10226986147
10226993289
10226999697
10227005435
10227011843
10227018862
10227028811
10227034487
10227041506
10227048342
10227055239
10227060732
10227069765
10227075869
10227085146
10227091555
10227098391
10227105044
10227111086
10227120485
10227124758
10227131106
10227142763
10227146670
10227155153
10227164309
10227171206
10227176882
10227182863
10227190798
10227197390
10227207033
10227213076
10227219484
10227226076
10227232607
10227239076
10227247866
10227256227
10227263002
10227271120
10227277895
10227287050
10227296388
10227307131
10227315309
10227322572
10227330263
10227337648
10227344057
10227351015
10227358522
10227365480
10227372377
10227379945
10227387941
10227396425
10227404420
10227416200
10227423524
10227431520
10227440248
10227447999
10227460023
10227466066
10227475587
10227482179
10227489564
10227496644
10227504396
10227511171
10227519105
10227527345
10227534974
10227541383
10227548646
10227555848
10227563966
10227571656
10227579347
10227585877
10227593568
10227601746
10227609620
10227616273
10227623597
10227629639
10227638612
10227645142
10227652711
10227658753
10227668275
10227676514
10227683472
10227691895
10227701234
10227708802
10227713257
10227722657
10227732117
10227739563
10227746338
10227755921
10227762635
10227770020
10227777344
10227784851
10227791870
10227799256
10227807312
10227815064
10227821289
10227828980
10227836914
10227845032
10227853333
10227861511
10227869507
10227877747
10227884400
10227891541
10227899170
10227906555
10227914795
10227923035
10227933289
10227938843
10227946899
10227955261
10227963318
10227971496
10227979675
10227984009
10227995117
10228002563
10228009826
10228017273
10228025390
10228032898
10228039917
10228047912
10228058105
10228065490
10228074646
10228082153
10228088745
10228096923
10228105957
10228112182
10228122375
10228130310
10228137207
10228145263
10228153991
10228159545
10228167785
10228176635
10228184875
10228193542
10228203552
10228209533
10228219787
10228228454
10228237304
10228245361
10228255004
10228263061
10228269591
10228277343
10228284484
10228292052
10228299315
10228305907
10228312865
10228321349
10228328246
10228336181
10228343017
10228350341
10228359557
10228366149
10228373046
10228380980
10228389647
10228397338
10228404113
10228411620
10228418517
10228424926
10228432372
10228439513
10228447020
10228454894
10228462279
10228469481
10228476988
10228483275
10228491148
10228498900
10228507140
10228515196
10228522398
10228530028
10228539000
10228546324
10228552733
10228561034
10228569273
10228577269
10228585264
10228593504
10228601134
10228609251
10228618651
10228624571
10228635069
10228643370
10228650694
10228655638
10228665770
10228672911
10228679014
10228684813
10228693052
10228700315
10228707518
10228713499
10228719847
10228725706
10228732481
10228738279
10228743467
10228750791
10228757139
10228762327
10228769041
10228774290
10228780088
10228787351
10228794859
10228800291
10228806089
10228813352
10228818479
10228823911
10228831174
10228839414
10228845823
10228851621
10228858091
10228866025
10228873838
10228880735
10228890989
10228899228
10228908750
10228919248
10228929136
10228939328
10228948179
10228959226
10228966672
10228973569
10228979306
10228985349
10228992246
10228998471
10229005307
10229011594
10229016843
10229023191
10229028806
10229037290
10229042783
10229049497
10229056272
10229062924
10229066037
10229074399
10229080625
10229085996
10229091000
10229097592
10229102963
10229107663
10229116269
10229122800
10229128293
10229134702
10229140256
10229146542
10229154843
10229160336
10229166257
10229173093
10229178586
10229185300
10229194028
10229200558
10229205563
10229213070
10229218442
10229224911
10229230099
10229236935
10229244259
10229249447
10229256710
10229262326
10229268917
10229275082
10229281918
10229287960
10229294918
10229302487
10229307858
10229313351
10229319638
10229327938
10229334103
10229341854
10229348446
10229355587
10229361874
10229367794
10229375607
10229381588
10229387814
10229393795
10229401730
10229407040
10229413204
10229421017
10229427547
10229433224
10229441158
10229447323
10229455013
10229460201
10229468258
10229474544
10229480099
10229487301
10229493404
10229502010
10229508663
10229516903
10229523311
10229534786
10229542476
10229549129
10229556514
10229564388
10229569820
10229577449
10229583553
10229589534
10229594966
10229602352
10229610164
10229615474
10229621639
10229628902
10229635005
10229641109
10229647457
10229654476
10229660884
10229668086
10229674312
10229679988
10229686336
10229694087
10229700435
10229706416
10229714290
10229719234
10229726985
10229732295
10229740047
10229746761
10229752437
10229760921
10229766353
10229773189
10229779292
10229786860
10229791621
10229798457
10229805842
10229812129
10229819331
10229825496
10229831965
10229838130
10229844050
10229851069
10229858760
10229865718
10229873469
10229880610
10229886897
10229893672
10229900996
10229907954
10229914973
10229924067
10229930781
10229937617
10229943293
10229950251
10229958125
10229965083
10229973139
10229981318
10229987055
10229993769
10230001643
10230007624
10230014521
10230020869
10230029597
10230039057
10230046015
10230053217
10230061457
10230068293
10230075373
10230079218
10230089289
10230098505
10230104792
10230113337
10230120600
10230127497
10230134699
10230141535
10230150751
10230157160
10230165277
10230172907
10230183710
10230190729
10230199091
10230206171
10230214594
10230225641
10230232538
10230240351
10230246515
10230254450
10230260614
10230270868
10230277887
10230284906
10230291254
10230298029
10230305536
10230312433
10230320428
10230327814
10230334100
10230340875
10230347833
10230354730
10230362237
10230368829
10230375787
10230382440
10230389398
10230395563
10230402154
10230408197
10230414667
10230420770
10230428094
10230434198
10230439203
10230446588
10230451288
10230458612
10230463250
10230470697
10230476068
10230483636
10230489068
10230496453
10230502069
10230507379
10230514459
10230519769
10230526544
10230533807
10230540216
10230546502
10230552361
10230559014
10230564935
10230571587
10230577508
10230584100
10230590142
10230596856
10230602837
10230608392
10230614190
10230622063
10230626946
10230632439
10230638726
10230644402
10230651604
10230656975
10230663750
10230671075
10230676812
10230682061
10230688531
10230695428
10230700615
10230705987
10230712884
10230717827
10230724419
10230730584
10230736687
10230742180
10230748650
10230755974
10230762322
10230767205
10230773980
10230780083
10230785332
10230791069
10230800347
10230806084
10230811455
10230818413
10230824455
10230835686
10230841545
10230848686
10230853996
10230859306
10230867546
10230873833
10230879509
10230886162
10230892082
10230898674
10230904289
10230909416
10230916557
10230922173
10230927910
10230934685
10230941887
10230947075
10230953667
10230959587
10230964897
10230971733
10230980156
10230986442
10230991997
10230997612
10231002067
10231009758
10231014885
10231022026
10231027824
10231033928
10231040764
10231046562
10231052910
10231058708
10231065055
10231070854
10231078056
10231083915
10231091178
10231096366
10231102470
10231107658
10231113029
10231120292
10231126884
10231134574
10231140312
10231144767
10231152580
10231158195
10231163810
10231170036
10231176322
10231182365
10231189506
10231194755
10231202018
10231208183
10231213859
10231220023
10231225944
10231231681
10231239127
10231244743
10231251578
10231257316
10231265006
10231272147
10231278678
10231284720
10231290397
10231297660
10231303214
10231309928
10231316825
10231324027
10231329764
10231335502
10231342826
10231348441
10231354544
10231361625
10231367850
10231375113
10231390677
10231399405
10231406241
10231417777
10231426505
10231435477
10231442313
10231448966
10231455313
10231463553
10231470084
10231476737
10231484122
10231489737
10231495963
10231502921
10231510855
10231519400
10231526358
10231531973
10231540030
10231546561
10231554800
10231560721
10231567618
10231573965
10231581228
10231587698
10231596792
10231603689
10231610342
10231616751
10231624563
10231631460
10231639456
10231645987
10231652029
10231660452
10231667837
10231675833
10231684988
10231690725
10231697195
10231703848
10231711660
10231719412
10231724783
10231733145
10231740957
10231749990
10231757070
10231762930
10231769216
10231778066
10231785330
10231793569
10231800344
10231807485
10231816701
10231823721
10231830495
10231837209
10231846426
10231853567
10231860708
10231867605
10231875356
10231884267
10231891164
10231900075
10231906667
10231915029
10231921743
10231928701
10231935231
10231943837
10231951223
10231959035
10231966664
10231973073
10231979665
10231987783
10231994374
10232002248
10232009816
10232017690
10232024220
10232029958
10232038503
10232044301
10232052724
10232058888
10232066518
10232072377
10232081044
10232087392
10232092763
10232098622
10232105214
10232111073
10232117970
10232123769
10232130116
10232136037
10232142750
10232148671
10232154286
10232161671
10232166798
10232172719
10232179188
10232185292
10232190846
10232198292
10232204335
10232210194
10232215626
10232225026
10232231495
10232236439
10232242176
10232248463
10232254139
10232261097
10232265980
10232273365
10232278920
10232284779
10232290760
10232299000
10232304676
10232310719
10232316090
10232322621
10232328236
10232334156
10232340992
10232346546
10232353016
10232358021
10232362904
10232369679
10232374622
10232381947
10232387989
10232394337
10232400379
10232406239
10232412342
10232419239
10232424244
10232429737
10232436329
10232443592
10232449451
10232454639
10232460743
10232467884
10232472950
10232480762
10232486255
10232492969
10232499683
10232505787
10232511768
10232518360
10232524036
10232530872
10232537220
10232542102
10232549060
10232554065
10232561695
10232567188
10232575428
10232581775
10232588428
10232596485
10232603565
10232610706
10232619556
10232625476
10232636829
10232643237
10232651477
10232657886
10232665271
10232671436
10232677051
10232683704
10232691394
10232696765
10232704944
10232711108
10232718188
10232724292
10232730212
10232738269
10232744433
10232750781
10232757373
10232763598
10232770129
10232776172
10232782275
10232788501
10232795520
10232801806
10232808520
10232814624
10232820727
10232828662
10232835681
10232841479
10232847155
10232855029
10232865100
10232870959
10232877795
10232885546
10232891650
10232898974
10232905322
10232910998
10232916918
10232922717
10232931017
10232937548
10232943591
10232950793
10232956408
10232965563
10232972277
10232978503
10232984972
10232992480
10232997973
10233003710
10233012255
10233019640
10233025317
10233032946
10233038317
10233046679
10233052355
10233059679
10233065233
10233072619
10233081347
10233087267
10233094225
10233100084
10233107164
10233112963
10233119555
10233126696
10233132982
10233138598
10233146654
10233153185
10233159716
10233167528
10233174486
10233180773
10233189135
10233195360
10233202745
10233210802
10233216966
10233225145
10233233995
10233244615
10233252123
10233259752
10233268175
10233275438
10233282274
10233289476
10233295335
10233302354
10233308275
10233316576
10233323228
10233332689
10233338121
10233346544
10233353868
10233360826
10233366380
10233375108
10233381761
10233388353
10233395616
10233401475
10233409471
10233417283
10233424363
10233430894
10233437425
10233444932
10233453172
10233459092
10233465867
10233475999
10233482774
10233491441
10233498399
10233504930
10233514451
10233521287
10233528062
10233536485
10233544358
10233552659
10233559068
10233565843
10233574571
10233581956
10233590745
10233599229
10233606553
10233613206
10233619553
10233628220
10233634568
10233641587
10233649583
10233655686
10233660752
10233666550
10233674424
10233680161
10233686997
10233694138
10233698838
10233705613
10233711594
10233719346
10233725693
10233731064
10233737900
10233744248
10233751572
10233757798
10233763901
10233771225
10233780136
10233787888
10233792832
10233799240
10233807358
10233813034
10233819870
10233825913
10233833115
10233839646
10233846665
10233854172
10233860764
10233868454
10233879807
10233885300
10233891586
10233897018
10233903183
10233908127
10233916305
10233922653
10233928146
10233934799
10233939926
10233946579
10233952988
10233957870
10233966171
10233971725
10233977890
10233983444
10233990097
10233995529
10234001022
10234007980
10234013168
10234019943
10234025497
10234030563
10234036911
10234043991
10234049972
10234055832
10234061325
10234067245
10234072860
10234079208
10234085006
10234091415
10234098495
10234103378
10234110824
10234116805
10234122604
10234127914
10234135177
10234141830
10234146957
10234153793
10234158859
10234166244
10234170882
10234176742
10234185470
10234194930
10234200851
10234209640
10234217025
10234225753
10234232955
10234240890
10234248397
10234255233
10234261458
10234267257
10234273604
10234278914
10234284957
10234292098
10234298629
10234306075
10234312789
10234319381
10234325179
10234332015
10234339339
10234345626
10234352462
10234358809
10234362166
10234372237
10234378218
10234384688
10234390792
10234398848
10234404769
10234412093
10234417830
10234423628
10234431441
10234447066
10234454756
10234462874
10234469344
10234476241
10234483870
10234492049
10234499678
10234505782
10234512007
10234519820
10234526289
10234531905
10234540510
10234546126
10234554060
10234559431
10234567366
10234574019
10234580183
10234587202
10234593428
10234600020
10234606367
10234613020
10234619307
10234626204
10234632490
10234640242
10234647993
10234653120
10234661055
10234667280
10234673078
10234679121
10234687666
10234694074
10234701582
10234707502
10234713239
10234721662
10234727339
10234734907
10234742780
10234749677
10234757063
10234763471
10234768842
10234776716
10234782331
10234788557
10234796003
10234802412
10234808149
10234815900
10234821638
10234827802
10234834333
10234840497
10234848188
10234854291
10234860273
10234866498
10234873395
10234879560
10234885114
10234893232
10234900739
10234908796
10234915387
10234921857
10234928022
10234936567
10234943647
10234949811
10234956952
10234963300
10234971662
10234977887
10234984113
10234990888
10234996686
10235005475
10235012067
10235018842
10235025922
10235032819
10235039227
10235047833
10235054303
10235060956
10235067670
10235075055
10235082257
10235089764
10235097516
10235106244
10235113385
10235121625
10235130292
10235140240
10235149457
10235156232
10235166546
10235173016
10235179791
10235186993
10235194073
10235202801
10235209820
10235216229
10235225384
10235230938
10235238140
10235245037
10235254071
10235259198
10235267865
10235274517
10235280743
10235288861
10235296978
10235303875
10235311077
10235317974
10235323834
10235329754
10235337322
10235343060
10235351482
10235358135
10235364666
10235370525
10235376385
10235382244
10235389080
10235395000
10235402142
10235408001
10235413494
10235419353
10235425884
10235431805
10235438396
10235444439
10235450847
10235458233
10235463299
10235470745
10235476604
10235481975
10235487346
10235494732
10235499798
10235507122
10235512554
10235519451
10235525310
10235530620
10235537761
10235543132
10235549419
10235554851
10235561016
10235568340
10235573589
10235580669
10235585918
10235593303
10235598491
10235605144
10235610637
10235617046
10235622600
10235627788
10235634746
10235641155
10235646465
10235651714
10235658672
10235664165
10235670573
10235675761
10235682903
10235689128
10235695476
10235700847
10235707622
10235712443
10235717448
10235724223
10235737041
10235744548
10235749858
10235758037
10235763347
10235769816
10235776347
10235783610
10235790629
10235795878
10235802958
10235807841
10235815165
10235821391
10235828288
10235835368
10235840678
10235848735
10235855082
10235861003
10235867961
10235873637
10235880290
10235885966
10235892008
10235897746
10235904276
10235909953
10235916972
10235923564
10235928752
10235935648
10235940775
10235947855
10235953471
10235961161
10235966593
10235974039
10235981913
10235987894
10235994181
10236001078
10236007426
10236014445
10236020792
10236027201
10236033488
10236040873
10236047098
10236053202
10236059366
10236066080
10236074015
10236079691
10236087443
10236092630
10236098795
10236104410
10236112162
10236120096
10236125834
10236132730
10236138407
10236144632
10236151834
10236158060
10236165506
10236171060
10236176859
10236185526
10236190592
10236197916
10236203348
10236209207
10236216959
10236223001
10236228433
10236235574
10236240823
10236247904
10236252420
10236259561
10236265543
10236270975
10236277383
10236283670
10236293741
10236301126
10236306741
10236314004
10236319864
10236328775
10236334268
10236340799
10236347696
10236356851
10236363382
10236372232
10236378702
10236385415
10236392618
10236399820
10236406656
10236412942
10236419717
10236427468
10236432534
10236440896
10236446145
10236453958
10236459756
10236465554
10236472573
10236479837
10236486245
10236493508
10236498940
10236504556
10236512795
10236517678
10236525063
10236530679
10236537942
10236546365
10236552834
10236559609
10236565774
10236572244
10236578469
10236585610
10236591897
10236597207
10236604958
10236610268
10236618508
10236625527
10236632729
10236639199
10236648110
10236655068
10236660378
10236667153
10236673562
10236681435
10236687661
10236695046
10236702919
10236709328
10236715676
10236724526
10236730935
10236737526
10236745461
10236751503
10236759926
10236765969
10236772072
10236780556
10236786843
10236796852
10236803078
10236809731
10236817543
10236824684
10236832253
10236839882
10236847878
10236855629
10236862465
10236869789
10236877663
10236885414
10236891701
10236899208
10236907265
10236915077
10236922157
10236929726
10236938576
10236943214
10236949928
10236958351
10236965126
10236975197
10236981117
10236989540
10236996498
10237003456
10237010170
10237019020
10237025734
10237032936
10237045875
10237054359
10237061622
10237068763
10237075050
10237081642
10237088722
10237096778
10237102516
10237109962
10237114478
10237122047
10237127906
10237133399
10237140785
10237146339
10237153602
10237159217
10237166175
10237171729
10237177894
10237184913
10237191138
10237197974
10237203162
10237208533
10237215247
10237222877
10237228797
10237235450
10237241309
10237248206
10237254493
10237260657
10237266639
10237273353
10237279456
10237287330
10237292762
10237298682
10237305335
10237310157
10237316993
10237322608
10237328528
10237335242
10237341040
10237346595
10237351844
10237358741
10237363379
10237369971
10237378211
10237384497
10237389563
10237396399
10237401587
10237406226
10237412818
10237420081
10237425696
10237430884
10237436438
10237443091
10237449194
10237453894
10237461401
10237467017
10237473730
10237478247
10237484839
10237490759
10237495764
10237501257
10237508398
10237513953
10237519751
10237526526
10237531653
10237538733
10237544653
10237549841
10237557532
10237562842
10237568335
10237574560
10237580237
10237587744
10237594763
10237600317
10237607702
10237614172
10237621801
10237628698
10237636267
10237643408
10237649816
10237656652
10237667578
10237673437
10237680822
10237686437
10237693823
10237699621
10237706945
10237712560
10237718481
10237726049
10237731420
10237737096
10237744543
10237750341
10237758886
10237764501
10237769994
10237778600
10237785009
10237791723
10237798131
10237804784
10237811132
10237818456
10237824865
10237830480
10237836767
10237843480
10237851354
10237856725
10237863134
10237870458
10237876561
10237883092
10237889196
10237896093
10237903722
10237908849
10237916600
10237921910
10237929723
10237935643
10237943151
10237948827
10237956151
10237961949
10237967565
10237975438
10237981114
10237986913
10237995030
10238001439
10238008214
10238014378
10238020116
10238026524
10238033238
10238039525
10238046422
10238054540
10238059666
10238065831
10238072667
10238078831
10238085423
10238091710
10238099461
10238105626
10238113072
10238118870
10238124058
10238131566
10238137181
10238145177
10238153050
10238158116
10238165684
10238171116
10238177098
10238182591
10238190526
10238197789
10238206395
10238212315
10238219395
10238225315
10238231358
10238241185
10238247105
10238262120
10238269749
10238277561
10238286778
10238294712
10238301548
10238310764
10238317112
10238322727
10238329929
10238337803
10238344639
10238350987
10238357700
10238363865
10238370274
10238376438
10238383640
10238389927
10238396030
10238402805
10238410496
10238417332
10238424534
10238431431
10238438938
10238445835
10238453159
10238460056
10238467502
10238476169
10238482090
10238488865
10238495212
10238501926
10238508701
10238517368
10238523471
10238530307
10238537876
10238544834
10238552524
10238559543
10238565830
10238573215
10238582004
10238589450
10238595920
10238603366
10238611789
10238618991
10238625827
10238633090
10238640231
10238647922
10238654453
10238663608
10238670078
10238677280
10238686252
10238692844
10238699313
10238706210
10238713962
10238722751
10238729220
10238737643
10238744540
10238750644
10238759311
10238766025
10238772006
10238777926
10238783847
10238788669
10238795932
10238804599
10238811129
10238816867
10238822604
10238828280
10238835238
10238840853
10238846408
10238853976
10238861117
10238866122
10238871920
10238879122
10238885165
10238891696
10238897616
10238903353
10238910372
10238914889
10238922335
10238928011
10238936800
10238946566
10238953341
10238959933
10238966891
10238975130
10238981112
10238987887
10238993685
10239000460
10239006747
10239011874
10239017428
10239022433
10239029879
10239034640
10239041475
10239047518
10239052462
10239057650
10239063875
10239067843
10239074190
10239080172
10239085238
10239093172
10239098909
10239104708
10239111605
10239116915
10239123812
10239128450
10239136812
10239141939
10239147371
10239153963
10239159334
10239165560
10239172823
10239178499
10239183687
10239190584
10239195589
10239201753
10239208711
10239215791
10239220796
10239227876
10239232637
10239239473
10239244722
10239252290
10239258089
10239264986
10239270479
10239275667
10239282564
10239288789
10239293794
10239302034
10239308320
10239314180
10239320589
10239326570
10239333467
10239339570
10239347932
10239353486
10239361909
10239367097
10239374605
10239379609
10239387239
10239393220
10239401094
10239407136
10239412507
10239420076
10239425630
10239431123
10239439363
10239445588
10239452058
10239460176
10239465608
10239473115
10239478852
10239484284
10239493684
10239500520
10239507600
10239514069
10239520051
10239526276
10239536713
10239544709
10239552216
10239559235
10239568024
10239574189
10239580964
10239587250
10239593171
10239599824
10239606660
10239613068
10239620576
10239626923
10239632722
10239638947
10239647553
10239652985
10239658478
10239666657
10239673005
10239678803
10239685456
10239693757
10239699311
10239704987
10239713593
10239718964
10239724457
10239732453
10239738617
10239745514
10239751557
10239758393
10239764801
10239771759
10239778107
10239784821
10239791168
10239798248
10239804535
10239810272
10239818024
10239823151
10239831085
10239836823
10239843292
10239851288
10239858978
10239864960
10239870575
10239877838
10239883331
10239891449
10239897247
10239906158
10239912079
10239918854
10239925995
10239932464
10239939422
10239945892
10239953155
10239960113
10239968292
10239974334
10239982025
10239988006
10239994171
10240002472
10240009491
10240016937
10240023956
10240031097
10240037689
10240045318
10240051849
10240058197
10240067474
10240073883
10240081146
10240089568
10240096343
10240105193
10240112029
10240122466
10240128387
10240137603
10240144622
10240151458
10240158416
10240167571
10240174956
10240184783
10240192412
10240199737
10240207488
10240214568
10240220977
10240227874
10240235442
10240242217
10240250152
10240256926
10240263945
10240270781
10240276763
10240283660
10240290801
10240299712
10240306914
10240314605
10240320891
10240328337
10240334929
10240341765
10240352263
10240360198
10240367278
10240375090
10240382292
10240389983
10240397002
10240403777
10240413908
10240421660
10240428191
10240434966
10240442107
10240449004
10240455595
10240461699
10240467436
10240475188
10240480925
10240486601
10240492766
10240498503
10240504240
10240511198
10240518095
10240523283
10240529204
10240537687
10240543669
10240550871
10240556669
10240562346
10240569792
10240575834
10240581144
10240586943
10240593657
10240598906
10240608305
10240614286
10240619841
10240626982
10240633573
10240638761
10240644255
10240649626
10240658537
10240664762
10240670500
10240675993
10240682646
10240688749
10240693327
10240700895
10240706144
10240712858
10240718107
10240723295
10240729520
10240734831
10240741300
10240746610
10240753446
10240761259
10240766447
10240772123
10240778593
10240784391
10240791837
10240798551
10240805936
10240811674
10240817228
10240822904
10240831815
10240837430
10240843778
10240849576
10240855802
10240861295
10240868192
10240873563
10240881315
10240886686
10240894071
10240898648
10240906827
10240911954
10240917630
10240923551
10240930875
10240937162
10240942777
10240948148
10240953824
10240960355
10240966214
10240972623
10240979825
10240984403
10240991544
10240998013
10241005277
10241010709
10241018460
10241024564
10241032132
10241038480
10241043485
10241052457
10241057462
10241065274
10241071866
10241078152
10241084378
10241090665
10241097928
10241104214
10241110501
10241118313
10241122708
10241131131
10241138394
10241144070
10241150967
10241158841
10241164700
10241171414
10241177639
10241184048
10241190213
10241196743
10241204312
10241209439
10241216885
10241222256
10241227932
10241234341
10241242031
10241248257
10241255520
10241261868
10241269924
10241277737
10241282498
10241290249
10241295010
10241302578
10241309231
10241314907
10241322720
10241328457
10241334499
10241341457
10241347317
10241354214
10241360439
10241366054
10241374538
10241380459
10241388088
10241393215
10241398647
10241408901
10241416103
10241425319
10241431728
10241438259
10241445705
10241454250
10241460231
10241465908
10241474758
10241481166
10241487453
10241493007
10241501064
10241507656
10241513942
10241521755
10241527858
10241534999
10241541225
10241547328
10241553493
10241559535
10241565761
10241572231
10241579921
10241585353
10241591579
10241598720
10241604884
10241610866
10241617275
10241624477
10241631252
10241637050
10241645656
10241652003
10241658717
10241665797
10241672572
10241679286
10241686183
10241693629
10241700404
10241707850
10241714808
10241721766
10241728724
10241737025
10241745448
10241751368
10241758326
10241765712
10241772792
10241778712
10241785487
10241792262
10241800990
10241806361
10241814051
10241821437
10241828761
10241835658
10241843104
10241853175
10241860621
10241867884
10241873622
10241882472
10241887110
10241896143
10241902735
10241909693
10241917262
10241924281
10241931788
10241941004
10241948328
10241955469
10241962794
10241970972
10241978968
10241982935
10241992396
10242000635
10242008387
10242015101
10242022608
10242029505
10242036707
10242043543
10242051966
10242058619
10242067041
10242074183
10242080774
10242089624
10242097437
10242103968
10242111841
10242122339
10242129541
10242135889
10242144373
10242149988
10242157373
10242166529
10242172510
10242179285
10242185388
10242192713
10242198206
10242203455
10242211084
10242217676
10242223108
10242229700
10242236536
10242242761
10242248376
10242255151
10242260522
10242267419
10242273035
10242280603
10242286157
10242292016
10242299097
10242307336
10242312158
10242319909
10242326623
10242332727
10242339258
10242345300
10242351831
10242357873
10242364038
10242369836
10242375756
10242382959
10242388635
10242394189
10242401086
10242405969
10242412377
10242417627
10242423425
10242430688
10242436181
10242442773
10242448327
10242453454
10242460473
10242466516
10242472253
10242477685
10242483178
10242489037
10242495751
10242502465
10242507592
10242514062
10242519006
10242525719
10242530663
10242539208
10242543908
10242550805
10242555871
