9755419056
9755424305
9755429798
9755434986
9755440907
9755446644
9755451222
9755458302
9755464100
9755470753
9755477406
9755482472
9755489430
9755495716
9755500477
9755508961
9755515247
9755521900
9755527516
9755533985
9755540821
9755546986
9755552967
9755557606
9755565968
9755573353
9755580494
9755586414
9755593372
9755599354
9755607593
9755614979
9755621082
9755627857
9755634998
9755642750
9755651417
9755657520
9755665149
9755672840
9755679615
9755688953
9755695972
9755702381
9755709034
9755716175
9755723743
9755731006
9755737476
9755745899
9755751209
9755759998
9755768421
9755773365
9755782276
9755791004
9755799365
9755806018
9755814807
9755821582
9755830005
9755835437
9755844348
9755851184
9755858630
9755865039
9755872974
9755880786
9755893664
9755901477
9755909228
9755917529
9755925281
9755932483
9755942431
9755948901
9755955798
9755964282
9755971606
9755980761
9755987841
9755994799
9756003405
9756011828
9756019152
9756025439
9756033313
9756042773
9756050402
9756058886
9756068225
9756076220
9756082202
9756090136
9756104296
9756114062
9756120715
9756130053
9756134509
9756144152
9756151843
9756159411
9756167895
9756175829
9756183703
9756190111
9756199206
9756208178
9756216479
9756224230
9756232958
9756240465
9756248766
9756255053
9756264574
9756272081
9756279162
9756286852
9756294298
9756302721
9756308214
9756318041
9756327013
9756333422
9756341967
9756349779
9756356981
9756365587
9756371935
9756381151
9756389757
9756397936
9756404894
9756411607
9756422472
9756429674
9756435777
9756445238
9756449388
9756460924
9756468492
9756475511
9756484788
9756492723
9756497911
9756506944
9756516038
9756524400
9756533067
9756540574
9756547166
9756554735
9756563035
9756567674
9756578294
9756586656
9756592454
9756601487
9756608445
9756616197
9756626390
9756632920
9756642259
9756651597
9756657579
9756666123
9756672227
9756680955
9756688462
9756695481
9756705003
9756714402
9756722764
9756729844
9756739854
9756748765
9756757310
9756766038
9756775315
9756783860
9756792527
9756799729
9756807481
9756814744
9756821702
9756829453
9756836960
9756843125
9756853013
9756860093
9756867905
9756877610
9756884446
9756893174
9756899460
9756909104
9756916611
9756923935
9756933213
9756938706
9756947800
9756953171
9756961960
9756969773
9756976914
9756982895
9756991745
9756998703
9757007065
9757015061
9757022202
9757028854
9757036118
9757044846
9757052536
9757058884
9757066818
9757075851
9757080063
9757088058
9757093552
9757100876
9757106552
9757115524
9757123581
9757132187
9757138962
9757146042
9757153732
9757158859
9757167282
9757172165
9757180771
9757187545
9757195846
9757201400
9757210617
9757217453
9757223922
9757228439
9757238876
9757246261
9757253707
9757260360
9757267990
9757274764
9757282333
9757290328
9757298995
9757306136
9757312179
9757318588
9757324691
9757330611
9757339462
9757346297
9757352767
9757359298
9757366134
9757372665
9757380233
9757390914
9757398238
9757406844
9757415511
9757424178
9757433455
9757441878
9757450423
9757464461
9757473311
9757481063
9757490035
9757498885
9757505904
9757511885
9757522078
9757528975
9757535323
9757544539
9757550460
9757559920
9757570845
9757580611
9757591475
9757601790
9757611128
9757621443
9757629195
9757637251
9757645186
9757652327
9757659346
9757667158
9757676314
9757684737
9757694746
9757703352
9757711104
9757719588
9757727766
9757735029
9757743513
9757751509
9757758345
9757760847
9757769087
9757776289
9757782698
9757789900
9757795271
9757802473
9757806013
9757813642
9757819014
9757827314
9757833967
9757840010
9757845137
9757851118
9757857710
9757863813
9757871687
9757876936
9757885298
9757890730
9757897932
9757902876
9757909101
9757914350
9757922834
9757927412
9757935224
9757941694
9757946272
9757952802
9757958906
9757966718
9757973554
9757979169
9757985517
9757991071
9757997480
9758002668
9758009443
9758016828
9758020856
9758028608
9758032453
9758040510
9758046552
9758052900
9758060773
9758067304
9758073407
9758078656
9758087018
9758090558
9758099103
9758107038
9758113630
9758119733
9758126813
9758134381
9758139752
9758146466
9758151959
9758158856
9758165875
9758171918
9758178266
9758184369
9758190656
9758196698
9758203717
9758210370
9758216168
9758222516
9758228314
9758233258
9758240216
9758245465
9758252301
9758257794
9758264081
9758269147
9758276532
9758282269
9758288129
9758293927
9758303815
9758309125
9758315228
9758321820
9758327984
9758333844
9758339886
9758346478
9758353314
9758359173
9758366253
9758373883
9758381085
9758387799
9758393170
9758397808
9758408062
9758415509
9758423565
9758430279
9758437969
9758447247
9758453533
9758461529
9758468121
9758475384
9758480694
9758488445
9758496319
9758502789
9758508343
9758517254
9758522808
9758530865
9758535809
9758543743
9758548809
9758556133
9758563396
9758570965
9758576946
9758584453
9758590618
9758596416
9758603435
9758610210
9758615215
9758624309
9758629925
9758636150
9758642986
9758649090
9758654583
9758662517
9758669048
9758678814
9758683574
9758691875
9758698223
9758705913
9758714336
9758720256
9758725994
9758736064
9758742778
9758749492
9758757610
9758763042
9758770793
9758776714
9758782146
9758793743
9758799297
9758807170
9758812785
9758820354
9758827495
9758833720
9758840862
9758848613
9758856181
9758863322
9758869243
9758878276
9758884502
9758889079
9758898845
9758903972
9758915019
9758923137
9758930949
9758935649
9758944804
9758951274
9758959880
9758967326
9758975993
9758983256
9758990886
9758996684
9759004313
9759012309
9759019877
9759027262
9759034892
9759040751
9759048686
9759053630
9759060649
9759067362
9759072856
9759079508
9759085063
9759091654
9759097025
9759101908
9759108622
9759113444
9759120158
9759125224
9759132365
9759138163
9759144022
9759147562
9759155070
9759161539
9759167399
9759171427
9759180826
9759187113
9759191386
9759197062
9759202738
9759208842
9759214518
9759223856
9759228800
9759233927
9759240030
9759246439
9759251139
9759257181
9759262247
9759269754
9759276896
9759282084
9759287210
9759292521
9759296427
9759303995
9759310038
9759314615
9759321390
9759326029
9759331400
9759337198
9759343241
9759348429
9759355997
9759361429
9759367288
9759372721
9759378275
9759384805
9759391763
9759397562
9759402628
9759409097
9759415628
9759420877
9759425943
9759431131
9759437540
9759443277
9759448831
9759453409
9759460123
9759464456
9759471292
9759478799
9759484476
9759491861
9759496500
9759503396
9759508279
9759514200
9759520547
9759527566
9759531350
9759539102
9759544778
9759550332
9759555948
9759564187
9759570535
9759575174
9759582071
9759588296
9759594400
9759600869
9759606851
9759614358
9759621072
9759626870
9759633462
9759639443
9759644509
9759652139
9759657754
9759666116
9759670266
9759678140
9759682656
9759690774
9759694375
9759703042
9759712441
9759717202
9759725503
9759730935
9759739480
9759743203
9759752114
9759756081
9759766213
9759771828
9759777749
9759783852
9759790383
9759796303
9759800759
9759809731
9759815102
9759822121
9759827126
9759833474
9759838418
9759845864
9759851174
9759859047
9759862832
9759869973
9759875649
9759881997
9759888466
9759894509
9759902321
9759908425
9759915505
9759921913
9759928444
9759933449
9759939919
9759946388
9759954750
9759960427
9759967934
9759973000
9759979958
9759984963
9759991615
9759997170
9760006691
9760011818
9760017860
9760023781
9760029945
9760037514
9760042946
9760050087
9760055336
9760063026
9760066627
9760073891
9760079018
9760087013
9760093849
9760100197
9760104164
9760112648
9760118812
9760124855
9760130958
9760136879
9760144813
9760149818
9760156532
9760163368
9760169227
9760173683
9760180458
9760187294
9760193397
9760199134
9760205970
9760211097
9760218788
9760222450
9760230445
9760236000
9760244117
9760251380
9760256751
9760264869
9760270240
9760276283
9760283485
9760290016
9760300330
9760304786
9760313270
9760320167
9760325904
9760332008
9760340491
9760347205
9760355567
9760362037
9760369727
9760375159
9760383216
9760388709
9760397254
9760402564
9760412818
9760418494
9760426795
9760432166
9760439917
9760447242
9760449683
9760459815
9760469458
9760475074
9760483558
9760489051
9760496558
9760503943
9760510840
9760516150
9760524634
9760532752
9760538550
9760546302
9760553870
9760561316
9760568213
9760576392
9760583655
9760591223
9760598975
9760607581
9760616736
9760623999
9760630408
9760637610
9760643347
9760654761
9760661352
9760668005
9760673437
9760680945
9760688147
9760694800
9760701697
9760710058
9760715796
9760722693
9760727453
9760733679
9760739416
9760744787
9760750647
9760757971
9760763037
9760770117
9760775915
9760781530
9760787146
9760792639
9760797888
9760805700
9760809301
9760816320
9760822790
9760828771
9760833776
9760839697
9760846105
9760852331
9760859655
9760866674
9760872778
9760877844
9760886266
9760890600
9760900121
9760905309
9760911047
9760917577
9760924047
9760932653
9760937292
9760944616
9760949682
9760957677
9760961095
9760969030
9760974218
9760979467
9760986547
9760992650
9760997655
9761003637
9761008214
9761014196
9761020666
9761027318
9761035253
9761042699
9761049718
9761055455
9761059911
9761066381
9761069982
9761078954
9761084508
9761089879
9761095983
9761101842
9761106969
9761110997
9761119786
9761125280
9761130529
9761136205
9761141576
9761144872
9761152135
9761159337
9761165318
9761171727
9761178197
9761184117
9761188451
9761195409
9761201878
9761208531
9761212437
9761220311
9761226231
9761231786
9761238072
9761243748
9761250218
9761256627
9761261998
9761268529
9761274022
9761280492
9761286107
9761291417
9761299901
9761306492
9761312657
9761319005
9761325108
9761328892
9761336094
9761343541
9761349888
9761357701
9761364537
9761370518
9761375035
9761382542
9761386998
9761396275
9761401768
9761409336
9761413243
9761422154
9761428929
9761434910
9761441136
9761447911
9761454991
9761460362
9761468723
9761472202
9761480076
9761483982
9761493870
9761499119
9761505039
9761511082
9761517124
9761523533
9761527927
9761535679
9761542576
9761548557
9761555149
9761560459
9761566868
9761572178
9761577732
9761588230
9761594822
9761600925
9761604648
9761612339
9761618747
9761624912
9761632419
9761638462
9761644932
9761651035
9761657688
9761662388
9761669773
9761674411
9761682590
9761689487
9761694736
9761701389
9761707492
9761713962
9761719211
9761727329
9761731967
9761737155
9761744358
9761749607
9761757297
9761763584
9761769870
9761776584
9761783359
9761790378
9761797214
9761804782
9761812351
9761819003
9761825107
9761833774
9761840549
9761846530
9761853183
9761859347
9761865939
9761870639
9761878940
9761884433
9761891330
9761896457
9761902255
9761908847
9761914279
9761921176
9761928927
9761935092
9761944308
9761949496
9761956698
9761965182
9761970492
9761978427
9761986361
9761992709
9762000705
9762007907
9762014010
9762020419
9762025607
9762035311
9762041720
9762048922
9762054904
9762062960
9762069552
9762079196
9762084322
9762093783
9762098483
9762108553
9762115878
9762121127
9762129488
9762135348
9762143710
9762155184
9762162752
9762169161
9762179293
9762184176
9762193575
9762198702
9762205843
9762211641
9762218966
9762224764
9762232393
9762238680
9762247957
9762252596
9762260531
9762266451
9762275606
9762279940
9762288973
9762296968
9762303926
9762311617
9762322115
9762327059
9762336580
9762341585
9762351045
9762358675
9762365328
9762371797
9762378694
9762385896
9762392671
9762398042
9762402925
9762410860
9762418123
9762424409
9762430757
9762434602
9762442781
9762449983
9762457185
9762463289
9762468355
9762476228
9762481294
9762486970
9762494417
9762500886
9762507234
9762510713
9762518342
9762524568
9762530183
9762535676
9762541230
9762547700
9762554475
9762559541
9762566255
9762571870
9762577241
9762582917
9762589204
9762595124
9762600434
9762605622
9762611787
9762615998
9762622529
9762627717
9762634248
9762640595
9762645661
9762651155
9762656587
9762662629
9762668549
9762675141
9762680390
9762685761
9762691621
9762697053
9762702058
9762707795
9762715119
9762720979
9762726289
9762731843
9762737153
9762742890
9762747590
9762754548
9762759797
9762765046
9762771271
9762775117
9762782075
9762786896
9762796540
9762801850
9762807892
9762814667
9762819733
9762825593
9762832734
9762839081
9762845368
9762850129
9762858307
9762864228
9762870392
9762877228
9762882843
9762888764
9762895417
9762901947
9762907807
9762913422
9762921417
9762927643
9762933502
9762939728
9762946869
9762954193
9762958649
9762966828
9762974945
9762981415
9762987946
9762993317
9763002228
9763009125
9763015839
9763023102
9763028717
9763035858
9763042999
9763048859
9763056427
9763063629
9763069061
9763075653
9763081634
9763087677
9763093414
9763100311
9763107208
9763113312
9763119598
9763125580
9763131744
9763138397
9763144684
9763149688
9763157379
9763163849
9763170745
9763176910
9763182891
9763190948
9763196197
9763202667
9763208221
9763216705
9763222869
9763227325
9763235809
9763240753
9763249298
9763255523
9763259918
9763267608
9763274322
9763280914
9763285064
9763292815
9763301666
9763307464
9763314788
9763320769
9763329559
9763335845
9763341643
9763350371
9763355498
9763362517
9763368194
9763375640
9763383086
9763389495
9763396270
9763401702
9763408599
9763415923
9763423430
9763428985
9763434783
9763442778
9763447966
9763455108
9763461577
9763469390
9763475859
9763483916
9763490935
9763496855
9763505889
9763512603
9763519927
9763528044
9763535613
9763542082
9763549712
9763556487
9763564177
9763573882
9763580473
9763586943
9763592436
9763599822
9763607451
9763614287
9763620818
9763630217
9763634978
9763643828
9763650847
9763657561
9763662443
9763671782
9763679472
9763686369
9763693266
9763701262
9763708159
9763714018
9763723173
9763727934
9763738676
9763744474
9763751432
9763757963
9763764860
9763770842
9763777861
9763786528
9763792570
9763799589
9763808012
9763815214
9763821989
9763831755
9763837614
9763848173
9763854948
9763860990
9763869169
9763876432
9763882841
9763890287
9763897489
9763905058
9763912260
9763921598
9763933439
9763944242
9763955717
9763966947
9763972440
9763982450
9763989225
9763994718
9763999662
9764004972
9764011869
9764015775
9764024015
9764029752
9764035367
9764039457
9764045926
9764050687
9764059110
9764068937
9764075589
9764082425
9764087613
9764094266
9764099088
9764105802
9764110807
9764116666
9764122891
9764127164
9764134610
9764140347
9764145169
9764151822
9764158780
9764164151
9764169400
9764176175
9764181546
9764186429
9764194852
9764200528
9764208096
9764215298
9764220120
9764226346
9764231778
9764240567
9764245755
9764250638
9764258206
9764263211
9764268338
9764274441
9764279507
9764284451
9764291043
9764296414
9764301907
9764305325
9764312710
9764319668
9764324429
9764331265
9764336331
9764341458
9764346463
9764352810
9764359280
9764363552
9764369778
9764375515
9764381253
9764385708
9764393338
9764396939
9764405361
9764411648
9764417996
9764423916
9764430081
9764435635
9764444119
9764449063
9764455227
9764462429
9764467617
9764475063
9764479458
9764488003
9764494412
9764501186
9764509548
9764514858
9764522915
9764530971
9764536953
9764543606
9764550320
9764557583
9764564663
9764571010
9764578396
9764583462
9764591396
9764597683
9764604030
9764611416
9764617153
9764624965
9764632168
9764638759
9764644863
9764650661
9764656765
9764664577
9764671474
9764678005
9764684169
9764691494
9764696437
9764704128
9764710903
9764717189
9764723964
9764730922
9764738002
9764745693
9764752590
9764758876
9764767665
9764774501
9764782375
9764789027
9764795741
9764802699
9764806667
9764814723
9764822475
9764828761
9764834743
9764841151
9764847743
9764855556
9764861537
9764868129
9764874660
9764881679
9764886989
9764894557
9764900905
9764908778
9764912684
9764920924
9764928431
9764934657
9764940516
9764946009
9764953273
9764960231
9764966029
9764973597
9764978724
9764985560
9764991725
9764997523
9765004603
9765010462
9765018092
9765023158
9765030787
9765036341
9765043421
9765050013
9765055934
9765063868
9765068995
9765075648
9765081324
9765089991
9765095789
9765102503
9765109095
9765117152
9765124110
9765130640
9765137537
9765144556
9765153467
9765159327
9765166041
9765172388
9765179163
9765185389
9765196253
9765200953
9765208582
9765214441
9765222132
9765228785
9765236353
9765241114
9765250330
9765258326
9765263697
9765271875
9765280054
9765287622
9765294519
9765302576
9765310327
9765317224
9765321436
9765329370
9765338159
9765343897
9765349085
9765360437
9765368433
9765376184
9765382837
9765390588
9765399988
9765406335
9765417505
9765423547
9765431665
9765435754
9765445032
9765449304
9765459070
9765464380
9765475488
9765481531
9765489099
9765496850
9765504419
9765510705
9765518274
9765528466
9765535119
9765542321
9765548425
9765556482
9765561670
9765568689
9765576379
9765582360
9765589868
9765596521
9765603173
9765608056
9765614160
9765619287
9765626916
9765633447
9765639733
9765644616
9765651147
9765657983
9765665612
9765671410
9765678246
9765682702
9765689477
9765695702
9765701257
9765706933
9765713891
9765717736
9765725426
9765732445
9765738549
9765743737
9765751122
9765756493
9765763024
9765768517
9765775963
9765780846
9765788292
9765793175
9765799828
9765805321
9765811974
9765816674
9765823876
9765828270
9765835350
9765841454
9765848839
9765853661
9765859032
9765865990
9765870018
9765878014
9765882653
9765889366
9765895531
9765901146
9765906822
9765912743
9765918541
9765924339
9765929405
9765935082
9765940453
9765947045
9765951683
9765958641
9765963829
9765971336
9765977928
9765982628
9765989220
9765995262
9766002464
9766009544
9766014366
9766022118
9766028099
9766033531
9766041710
9766046226
9766053429
9766059044
9766064415
9766070579
9766076622
9766084739
9766090172
9766097374
9766103538
9766109520
9766116295
9766121116
9766129844
9766135154
9766140953
9766147667
9766153160
9766158836
9766167442
9766172386
9766179771
9766185386
9766191978
9766198814
9766204795
9766211448
9766218162
9766224876
9766232017
9766238059
9766245200
9766251060
9766256919
9766265708
9766270713
9766278465
9766284507
9766290305
9766296714
9766303489
9766311423
9766317954
9766324363
9766331016
9766336814
9766342918
9766347556
9766356467
9766362021
9766369224
9766376304
9766382163
9766389243
9766393699
9766401206
9766409079
9766414878
9766422446
9766426902
9766434226
9766439719
9766448264
9766452109
9766459555
9766467002
9766471457
9766479819
9766487326
9766494040
9766500022
9766505942
9766512961
9766519370
9766525046
9766533286
9766539755
9766546164
9766552023
9766559592
9766566000
9766571616
9766577719
9766585226
9766592795
9766597250
9766605307
9766609824
9766617026
9766623801
9766631125
9766634970
9766642111
9766648215
9766654623
9766661703
9766667502
9766676901
9766680807
9766688315
9766695761
9766702108
9766707968
9766715231
9766722677
9766731405
9766738852
9766744772
9766752951
9766759665
9766765036
9766771933
9766781637
9766786337
9766796347
9766803366
9766808676
9766816122
9766823446
9766832235
9766838033
9766846822
9766852804
9766860372
9766866537
9766876180
9766880941
9766889059
9766896993
9766904684
9766911214
9766918356
9766926534
9766932943
9766942220
9766947713
9766956136
9766962606
9766972738
9766977010
9766985677
9766994405
9767002889
9767008565
9767017537
9767022176
9767032308
9767037252
9767046773
9767051839
9767061727
9767068441
9767076131
9767082540
9767090596
9767097310
9767106038
9767114278
9767122090
9767127461
9767136678
9767143941
9767150594
9767156148
9767161946
9767169209
9767175435
9767182576
9767187764
9767196431
9767202595
9767208272
9767214497
9767219197
9767227498
9767231099
9767238972
9767243611
9767249348
9767256795
9767263508
9767270527
9767276753
9767282490
9767288289
9767295613
9767301838
9767306965
9767313679
9767320515
9767326985
9767332844
9767338704
9767345845
9767350850
9767357258
9767363240
9767369038
9767374653
9767379841
9767385456
9767390827
9767398640
9767403218
9767410969
9767417378
9767422871
9767429768
9767434590
9767441853
9767448383
9767453693
9767459858
9767466023
9767472858
9767477497
9767484394
9767489765
9767495625
9767501362
9767506550
9767513142
9767519672
9767524799
9767530231
9767536152
9767541889
9767548664
9767554340
9767561909
9767565937
9767574665
9767580768
9767587116
9767592853
9767598652
9767606220
9767614887
9767619526
9767627887
9767635212
9767641071
9767647541
9767653400
9767659320
9767666645
9767672138
9767680500
9767684406
9767693683
9767698810
9767704669
9767710773
9767717304
9767725788
9767731830
9767739154
9767745014
9767750812
9767756488
9767762775
9767769061
9767774066
9767781390
9767786456
9767794025
9767798907
9767806598
9767812884
9767818683
9767825946
9767830585
9767837176
9767843463
9767849322
9767854388
9767863177
9767868182
9767875079
9767880023
9767887347
9767893084
9767899127
9767905902
9767911700
9767919574
9767924640
9767932696
9767939105
9767945452
9767952288
9767957965
9767966510
9767973101
9767979022
9767984698
9767990740
9767998553
9768004168
9768012469
9768016497
9768025225
9768031329
9768037493
9768044024
9768054034
9768061297
9768067828
9768073626
9768080340
9768085406
9768093462
9768098894
9768107806
9768113604
9768120562
9768127398
9768131792
9768140093
9768145525
9768153460
9768159441
9768165789
9768170916
9768176897
9768186113
9768191485
9768198565
9768205645
9768211687
9768219133
9768223467
9768231707
9768237871
9768244402
9768250811
9768256609
9768265154
9768270647
9768278887
9768283159
9768292559
9768300859
9768308306
9768314775
9768320513
9768328142
9768334612
9768341203
9768348406
9768356645
9768362993
9768368425
9768378923
9768384843
9768392290
9768399797
9768405901
9768411882
9768420854
9768427934
9768434770
9768441301
9768449357
9768457048
9768464494
9768469621
9768477617
9768486406
9768494157
9768502214
9768508928
9768517778
9768524308
9768534440
9768543351
9768551225
9768557634
9768564958
9768572221
9768579179
9768586869
9768592546
9768601640
9768607987
9768615861
9768621720
9768630082
9768636613
9768644303
9768651444
9768662431
9768669389
9768678666
9768685319
9768693864
9768698441
9768706864
9768713761
9768724442
9768729142
9768736954
9768741471
9768750443
9768756608
9768762833
9768769242
9768774186
9768782425
9768787674
9768794693
9768800919
9768806473
9768812821
9768818924
9768826004
9768829361
9768837113
9768843277
9768849198
9768856461
9768863236
9768869278
9768875382
9768881058
9768887039
9768893387
9768899918
9768906693
9768913101
9768919022
9768924698
9768929642
9768936356
9768946121
9768950333
9768957901
9768964737
9768968704
9768975845
9768980911
9768987686
9768994827
9768999954
9769006241
9769011734
9769017654
9769023819
9769029434
9769034866
9769040848
9769046707
9769052627
9769058365
9769066055
9769070999
9769078262
9769081436
9769089248
9769095657
9769101944
9769109146
9769114578
9769119644
9769125503
9769131301
9769136428
9769143325
9769149185
9769155715
9769161331
9769166519
9769171829
9769178665
9769183425
9769190078
9769195083
9769202224
9769208389
9769214919
9769220901
9769226089
9769232742
9769239333
9769244766
9769250930
9769258132
9769263564
9769270644
9769276382
9769283828
9769288833
9769296950
9769302993
9769308974
9769315017
9769321364
9769328139
9769333999
9769340224
9769346694
9769352553
9769362136
9769367629
9769374892
9769380446
9769387771
9769394179
9769400100
9769406691
9769412551
9769419875
9769426162
9769434401
9769440932
9769448439
9769454116
9769462172
9769468337
9769476149
9769483168
9769491469
9769495619
9769505202
9769511672
9769518569
9769524306
9769529860
9769537123
9769544447
9769550856
9769557326
9769563124
9769569045
9769575636
9769580031
9769586012
9769595045
9769601149
9769607069
9769610548
9769618300
9769624708
9769631056
9769638380
9769645216
9769651015
9769655958
9769663038
9769668654
9769676100
9769680250
9769688063
9769694655
9769700941
9769707777
9769713270
9769720411
9769727491
9769733656
9769740980
9769746107
9769752272
9769757215
9769765638
9769771925
9769778272
9769786085
9769791578
9769799146
9769803236
9769812574
9769820509
9769826795
9769832716
9769838331
9769846143
9769852247
9769858656
9769866895
9769872266
9769881483
9769887525
9769895643
9769902296
9769911329
9769916822
9769925794
9769934278
9769939527
9769947034
9769955213
9769963025
9769969434
9769976880
9769985181
9769990735
9769998121
9770005323
9770013135
9770020459
9770029798
9770038098
9770045728
9770052381
9770059827
9770063794
9770072400
9770081494
9770089429
9770098340
9770107190
9770114453
9770121045
9770130383
9770136121
9770146497
9770153821
9770159558
9770167126
9770174207
9770180981
9770187939
9770196240
9770203076
9770209851
9770217847
9770224072
9770232495
9770238232
9770247204
9770255505
9770262097
9770269787
9770275769
9770284009
9770290173
9770298291
9770305615
9770315075
9770321179
9770328015
9770332104
9770339794
9770346752
9770352307
9770359448
9770364575
9770371533
9770376538
9770383068
9770386852
9770395947
9770402050
9770408154
9770413830
9770418713
9770425976
9770430676
9770438183
9770444714
9770450878
9770457104
9770462719
9770468945
9770475048
9770480724
9770487621
9770494762
9770501354
9770506237
9770511730
9770516491
9770524425
9770530346
9770537792
9770543957
9770548839
9770554760
9770559887
9770565075
9770572399
9770577831
9770584057
9770589977
9770595165
9770600475
9770604381
9770610057
9770615917
9770622020
9770627758
9770633556
9770638927
9770644908
9770652111
9770656932
9770662731
9770668773
9770674388
9770680980
9770687267
9770693614
9770699108
9770704723
9770711192
9770716136
9770722179
9770728587
9770734569
9770740306
9770746227
9770751720
9770758006
9770764537
9770770946
9770777049
9770782848
9770788585
9770795543
9770800243
9770806956
9770812144
9770819957
9770825328
9770831004
9770836925
9770843272
9770849498
9770855113
9770863902
9770867808
9770876964
9770882945
9770889842
9770896556
9770901866
9770909739
9770916148
9770922252
9770928355
9770935618
9770941844
9770947581
9770956309
9770962657
9770969615
9770975840
9770981150
9770989512
9770993296
9771001841
9771008006
9771015025
9771020884
9771026438
9771033213
9771038462
9771047617
9771054148
9771059336
9771067393
9771073069
9771079722
9771086619
9771092783
9771099985
9771106455
9771112925
9771117869
9771124827
9771132578
9771139231
9771146555
9771151865
9771159250
9771166208
9771172678
9771180918
9771187204
9771194162
9771199228
9771206675
9771212412
9771219126
9771228403
9771233835
9771242258
9771248178
9771254648
9771262216
9771269297
9771276255
9771282541
9771288706
9771294687
9771300913
9771308725
9771313974
9771322153
9771328623
9771334848
9771342783
9771347726
9771355539
9771362009
9771369028
9771375070
9771384347
9771390268
9771396677
9771404306
9771409738
9771420297
9771425790
9771433847
9771439950
9771446359
9771453073
9771459909
9771468026
9771474252
9771482736
9771486825
9771495797
9771502511
9771509591
9771517465
9771523263
9771530709
9771538034
9771544870
9771552865
9771560311
9771567330
9771573495
9771579782
9771588998
9771595712
9771602365
9771609445
9771615487
9771624276
9771633187
9771639840
9771643685
9771653390
9771657235
9771665170
9771673287
9771680062
9771688729
9771695321
9771704110
9771709237
9771718697
9771725411
9771732369
9771740121
9771747628
9771754281
9771760384
9771768319
9771775704
9771786263
9771791390
9771799691
9771807259
9771816841
9771825814
9771831673
9771836800
9771848275
9771855110
9771863899
9771873421
9771878548
9771887642
9771896248
9771902779
9771909432
9771916145
9771922676
9771928780
9771934395
9771939522
9771945869
9771952461
9771958015
9771964973
9771971199
9771977058
9771982063
9771989021
9771996101
9772001655
9772007881
9772013862
9772019722
9772025276
9772032112
9772037910
9772043464
9772050178
9772056587
9772062019
9772067024
9772076790
9772081001
9772088630
9772094246
9772099983
9772105964
9772111763
9772119636
9772123848
9772131843
9772136970
9772142036
9772148872
9772152656
9772160896
9772165779
9772171211
9772177864
9772183296
9772189094
9772193427
9772201789
9772206428
9772213020
9772218696
9772223762
9772229682
9772235786
9772241157
9772245979
9772252570
9772258857
9772264838
9772270393
9772275275
9772283027
9772288703
9772294318
9772300361
9772304816
9772311835
9772315925
9772322883
9772329535
9772335029
9772340095
9772345954
9772353217
9772358588
9772367743
9772373603
9772380378
9772388800
9772394111
9772398871
9772406195
9772413825
9772421088
9772427130
9772433051
9772440680
9772446784
9772453192
9772460211
9772467047
9772472235
9772478583
9772485602
9772492255
9772498236
9772505621
9772510321
9772517340
9772524115
9772530890
9772536261
9772543341
9772550055
9772556097
9772562445
9772569708
9772575934
9772581549
9772589361
9772595160
9772602179
9772609259
9772615607
9772622076
9772626105
9772633978
9772640875
9772647162
9772653875
9772660040
9772666327
9772670904
9772679449
9772685247
9772691900
9772697516
9772704657
9772711004
9772717779
9772724737
9772730474
9772737371
9772742254
9772749151
9772754095
9772760748
9772768926
9772774664
9772781561
9772787847
9772794866
9772799871
9772807623
9772815618
9772821905
9772828314
9772833440
9772840521
9772846807
9772852789
9772857183
9772865972
9772871587
9772878423
9772884832
9772890020
9772897527
9772904058
9772910833
9772916997
9772922796
9772930913
9772937749
9772942571
9772951299
9772956731
9772965276
9772972356
9772978948
9772989629
9772999456
9773007024
9773012334
9773020330
9773027776
9773034795
9773040715
9773046208
9773054814
9773061162
9773068425
9773074712
9773079717
9773087163
9773090886
9773101811
9773107854
9773115117
9773122685
9773128301
9773141301
9773149602
9773157109
9773164006
9773170598
9773177434
9773184453
9773191533
9773197331
9773207463
9773214970
9773221318
9773226567
9773234685
9773240727
9773247014
9773255497
9773263371
9773269474
9773274357
9773283818
9773287541
9773295720
9773305729
9773312931
9773318791
9773326298
9773333988
9773337590
9773346073
9773355229
9773362004
9773368778
9773374394
9773383488
9773390568
9773397587
9773403996
9773411442
9773420231
9773425175
9773432316
9773438786
9773445866
9773452274
9773460392
9773466312
9773473576
9773478886
9773487614
9773493595
9773498722
9773504398
9773511661
9773517093
9773523807
9773529545
9773535526
9773541019
9773549076
9773553837
9773562565
9773568424
9773575016
9773580814
9773586002
9773593876
9773597965
9773605777
9773612064
9773617862
9773623600
9773629154
9773636295
9773640934
9773648929
9773654788
9773660770
9773666446
9773673221
9773679813
9773685306
9773690128
9773696842
9773701053
9773707340
9773713321
9773721561
9773725284
9773731815
9773737003
9773743594
9773749942
9773753787
9773762454
9773767703
9773772952
9773776492
9773784976
9773790408
9773794375
9773802188
9773806827
9773812381
9773818728
9773823916
9773830203
9773836184
9773842166
9773846499
9773854678
9773859561
9773866885
9773873233
9773876895
9773885623
9773891482
9773897342
9773904544
9773910586
9773916079
9773924624
9773929446
9773937686
9773942507
9773947879
9773954348
9773959353
9773966677
9773973208
9773979800
9773986758
9773992129
9773999819
9774005068
9774012759
9774019045
9774025515
9774032412
9774040224
9774046267
9774050295
9774057925
9774065249
9774071108
9774077273
9774083803
9774090822
9774096682
9774104800
9774111025
9774117495
9774124514
9774130495
9774138369
9774143129
9774153261
9774158877
9774165224
9774172670
9774178103
9774184938
9774188906
9774197634
9774204103
9774209108
9774217104
9774222414
9774228762
9774235598
9774241884
9774247194
9774253725
9774260927
9774267214
9774272341
9774278505
9774285524
9774292482
9774298708
9774303652
9774310548
9774313966
9774321901
9774328676
9774334901
9774343019
9774348024
9774356874
9774363161
9774369386
9774376527
9774381715
9774389772
9774393983
9774401979
9774410280
9774415895
9774422731
9774430116
9774436464
9774443544
9774449403
9774456910
9774462770
9774470826
9774477784
9774484498
9774488404
9774496949
9774504457
9774509523
9774516847
9774524842
9774531068
9774538697
9774544007
9774551576
9774557862
9774563600
9774572816
9774580140
9774587708
9774595582
9774603089
9774610536
9774616090
9774626710
9774633241
9774641236
9774647462
9774655518
9774661744
9774669678
9774674317
9774684449
9774692750
9774700318
9774707581
9774713563
9774722596
9774730530
9774739747
9774746705
9774756104
9774760743
9774771546
9774779297
9774784668
9774794434
9774800293
9774809204
9774814087
9774822205
9774828247
9774837220
9774845154
9774852478
9774860962
9774866760
9774874817
9774883606
9774891785
9774897095
9774908020
9774916626
9774924683
9774932617
9774943909
9774950378
9774959656
9774968811
9774976746
9774981506
9774991638
9774998047
9775005737
9775012207
9775019836
9775028320
9775036743
9775043518
9775049926
9775058227
9775064636
9775071716
9775077819
9775085266
9775093139
9775097717
9775105041
9775111999
9775117736
9775124267
9775129760
9775137878
9775144226
9775150512
9775156372
9775162780
9775170349
9775176391
9775182556
9775188598
9775194152
9775200500
9775206542
9775214111
9775219665
9775225585
9775231811
9775238036
9775243468
9775249633
9775256164
9775261840
9775268127
9775274535
9775282226
9775289123
9775295714
9775301086
9775307677
9775314086
9775319091
9775325561
9775331969
9775337584
9775344176
9775350707
9775355773
9775360228
9775367064
9775372557
9775379271
9775385863
9775391173
9775398436
9775404113
9775409178
9775415892
9775421141
9775427306
9775432799
9775438353
9775445006
9775450438
9775455626
9775460448
9775466918
9775470580
9775477416
9775484313
9775490050
9775495970
9775502074
9775507323
9775514037
9775520140
9775526488
9775532103
9775537657
9775544310
9775550047
9775556639
9775560484
9775568541
9775574339
9775579832
9775587950
9775593199
9775600523
9775606810
9775613218
9775619688
9775624083
9775631956
9775637449
9775645445
9775651548
9775657347
9775663939
9775669004
9775676634
9775684263
9775689817
9775696836
9775702940
9775709776
9775714781
9775723020
9775728086
9775734922
9775742369
9775748655
9775754270
9775761656
9775769041
9775773985
9775783750
9775789610
9775796323
9775803220
9775809019
9775817197
9775821104
9775828977
9775835508
9775841978
9775849119
9775853574
9775862730
9775868040
9775875120
9775881772
9775887815
9775894590
9775902463
9775910215
9775914121
9775924802
9775930539
9775936582
9775943662
9775948728
9775956479
9775962339
9775970334
9775974057
9775981565
9775985288
9775993222
9776000486
9776006650
9776013181
9776020444
9776026670
9776032468
9776038632
9776045102
9776051755
9776059140
9776065793
9776072629
9776079160
9776085568
9776092709
9776100034
9776105649
9776112485
9776118955
9776124753
9776132321
9776138303
9776144894
9776151059
9776157468
9776164120
9776170468
9776175839
9776182736
9776190182
9776195431
9776203488
9776208676
9776216611
9776225094
9776232541
9776239010
9776248044
9776253354
9776261227
9776267331
9776275509
9776282162
9776289669
9776294796
9776304501
9776309933
9776319393
9776327389
9776334835
9776341244
9776348263
9776357235
9776364681
9776370846
9776376156
9776383907
9776389217
9776397335
9776405331
9776412533
9776419430
9776427303
9776433712
9776442074
9776449459
9776457699
9776463436
9776473507
9776481563
9776489254
9776496639
9776504940
9776514400
9776521419
9776529476
9776537166
9776545650
9776552059
9776558773
9776567684
9776575985
9776583431
9776593563
9776599178
9776608638
9776616573
9776622066
9776629207
9776636775
9776644039
9776651485
9776659480
9776666438
9776672847
9776678706
9776684871
9776691097
9776698360
9776705196
9776711848
9776715266
9776723384
9776726619
9776734492
9776741756
9776746333
9776752986
9776757686
9776764766
9776769466
9776775691
9776781428
9776788203
9776794368
9776800349
9776806819
9776812495
9776818355
9776825068
9776831904
9776836970
9776843562
9776848384
9776855586
9776862117
9776867976
9776874568
9776879634
9776885310
9776890803
9776896724
9776902705
9776909236
9776915705
9776920954
9776927485
9776933406
9776938594
9776942927
9776949702
9776956477
9776961421
9776967524
9776972529
9776979365
9776985713
9776991511
9776996943
9777001276
9777007685
9777014033
9777019099
9777024348
9777029292
9777035578
9777042292
9777047358
9777051203
9777056269
9777061579
9777066950
9777073908
9777079157
9777084894
9777091425
9777098994
9777104487
9777112482
9777117609
9777124933
9777132868
9777137018
9777143549
9777149714
9777155878
9777160883
9777167536
9777174189
9777179804
9777185663
9777192682
9777199762
9777204401
9777212335
9777218134
9777224604
9777231439
9777237421
9777244135
9777251276
9777256708
9777263056
9777268976
9777273676
9777281122
9777287836
9777294611
9777302606
9777307916
9777314813
9777321527
9777327509
9777334528
9777339960
9777348077
9777354425
9777360284
9777367364
9777374811
9777380853
9777388421
9777394220
9777401483
9777407342
9777413995
9777421014
9777427057
9777434259
9777440545
9777447931
9777453729
9777459100
9777467279
9777474176
9777480157
9777485833
9777492669
9777499627
9777505609
9777512567
9777519830
9777526544
9777533380
9777538323
9777545831
9777550042
9777557794
9777564080
9777570184
9777577142
9777580621
9777588860
9777595818
9777601739
9777608453
9777614007
9777620599
9777628106
9777633416
9777642632
9777648736
9777655389
9777662591
9777670098
9777678216
9777686150
9777694085
9777700738
9777707207
9777712639
9777720757
9777727593
9777734002
9777741875
9777748833
9777754448
9777761956
9777769585
9777773857
9777783196
9777790520
9777797661
9777804375
9777810112
9777817375
9777823479
9777831780
9777836724
9777846855
9777853935
9777861138
9777870049
9777877617
9777884880
9777889824
9777898979
9777906670
9777913506
9777920891
9777928398
9777935722
9777942497
9777951958
9777957878
9777966423
9777972282
9777978691
9777986198
9777992424
9777998955
9778007744
9778012382
9778020866
9778026664
9778033317
9778039299
9778047538
9778054130
9778063041
9778067985
9778076652
9778084587
9778091545
9778098991
9778105094
9778114067
9778122306
9778130180
9778136711
9778145133
9778151603
9778159416
9778166252
9778175407
9778180412
9778190910
9778195670
9778205070
9778209892
9778219718
9778228751
9778236625
9778242850
9778250846
9778259940
9778268485
9778275504
9778282340
9778290763
9778294547
9778303763
9778309257
9778315482
9778322745
9778327018
9778336051
9778340201
9778349295
9778356253
9778362235
9778367545
9778374259
9778379874
9778385245
9778393424
9778399527
9778405265
9778411429
9778415885
9778425040
9778430228
9778436942
9778442862
9778448477
9778451895
9778460257
9778467642
9778473013
9778480704
9778485648
9778491507
9778496329
9778502188
9778509024
9778515128
9778520255
9778526541
9778533438
9778539053
9778545035
9778550223
9778556326
9778561392
9778567618
9778573416
9778578360
9778582998
9778590445
9778596304
9778601309
9778608145
9778613394
9778619925
9778626089
9778631643
9778637808
9778643850
9778650320
9778656057
9778661306
9778668142
9778672598
9778680227
9778686270
9778691824
9778698233
9778703726
9778710806
9778717642
9778723379
9778729482
9778735464
9778741751
9778747061
9778753286
9778760488
9778766226
9778772634
9778777334
9778784048
9778788198
9778798086
9778803823
9778808218
9778815359
9778822134
9778829336
9778834951
9778842947
9778846853
9778855276
9778861928
9778866750
9778875295
9778880483
9778889211
9778894460
9778903066
9778910085
9778916066
9778922780
9778930654
9778937063
9778944082
9778950246
9778956289
9778962758
9778968862
9778975637
9778982412
9778987416
9778995290
9779003224
9779008168
9779016408
9779022145
9779029653
9779036366
9779042836
9779049306
9779053884
9779060719
9779068105
9779074147
9779080190
9779087819
9779094411
9779100453
9779106435
9779112538
9779120778
9779125844
9779133046
9779138539
9779145741
9779150807
9779158620
9779165761
9779172413
9779179310
9779186329
9779193410
9779200551
9779206898
9779214039
9779220875
9779227162
9779233571
9779239308
9779246693
9779251637
9779260060
9779265492
9779273732
9779277699
9779285755
9779292408
9779299427
9779306996
9779313343
9779320912
9779328480
9779336109
9779342152
9779349110
9779358143
9779363026
9779370960
9779376453
9779385243
9779392811
9779399891
9779407887
9779415577
9779422291
9779428333
9779436512
9779440723
9779450184
9779455799
9779465565
9779474720
9779480640
9779489979
9779498035
9779505054
9779511463
9779519947
9779526355
9779533802
9779542164
9779547535
9779555042
9779563160
9779571460
9779579212
9779586414
9779593677
9779600513
9779606983
9779614673
9779619678
9779628711
9779636218
9779643726
9779651416
9779656726
9779666736
9779673206
9779681751
9779687305
9779696277
9779701038
9779710193
9779717578
9779725085
9779732288
9779739978
9779749377
9779755725
9779764697
9779771716
9779780322
9779785388
9779795337
9779800281
9779809985
9779817492
9779824511
9779832263
9779840258
9779845752
9779856128
9779860705
9779869433
9779876757
9779883105
9779888720
9779894274
9779899890
9779907031
9779913439
9779918811
9779926074
9779929614
9779937548
9779945117
9779950244
9779957263
9779963854
9779969470
9779975329
9779981127
9779988818
9779993761
9780000719
9780006701
9780011889
9780017565
9780022936
9780030138
9780035509
9780040697
9780046496
9780054186
9780059801
9780065722
9780073717
9780079455
9780085314
9780091356
9780098253
9780104601
9780109850
9780117907
9780124498
9780129931
9780135973
9780140307
9780147265
9780153734
9780159716
9780165331
9780169664
9780177294
9780183886
9780189745
9780195543
9780200914
9780206285
9780212694
9780218553
9780223558
9780228258
9780237108
9780242418
9780247362
9780253771
9780257982
9780265062
9780271776
9780277208
9780284959
9780289476
9780296617
9780302049
9780307909
9780316637
9780321764
9780327989
9780333482
9780339281
9780345750
9780351671
9780359117
9780364183
9780370470
9780375596
9780382127
9780386155
9780394395
9780398485
9780407152
9780414232
9780419664
9780427964
9780434617
9780439134
9780447679
9780452684
9780460496
9780466539
9780472032
9780480333
9780485704
9780493333
9780497239
9780505601
9780512254
9780518724
9780525437
9780531236
9780539964
9780547471
9780552415
9780559922
9780566453
9780571580
9780577622
9780586228
9780591416
9780604234
9780613206
9780620286
9780626817
9780635361
9780642319
9780647874
9780653672
9780662400
9780666306
9780675706
9780682114
9780688401
9780694809
9780699936
9780709214
9780714768
9780721360
9780729599
9780736435
9780741929
9780747483
9780754502
9780759629
9780766648
9780774033
9780780136
9780786850
9780793198
9780799179
9780806381
9780813095
9780817673
9780826096
9780832749
9780839707
9780845200
9780852890
9780859543
9780867355
9780874252
9780881943
9780888229
9780894089
9780899643
9780906845
9780915268
9780921860
9780928268
9780935898
9780942306
9780948532
9780956589
9780961349
9780971054
9780978012
9780984970
9780991623
9780998337
9781006576
9781014267
9781021164
9781028549
9781035690
9781043686
9781048996
9781056991
9781063400
9781072067
9781080123
9781085556
9781091537
9781099227
9781105941
9781112899
9781117477
9781126449
9781134628
9781142135
9781147628
9781154830
9781159164
9781168929
9781177352
9781183028
9781191268
9781198775
9781205856
9781213424
9781221297
9781226791
9781235824
9781243819
9781250960
9781258102
9781266402
9781274032
9781281173
9781289412
9781295882
9781305953
9781312117
9781319625
9781326949
9781334029
9781343428
9781350142
9781358382
9781366133
9781374068
9781379805
9781388533
9781397261
9781404769
9781411910
9781419051
9781425154
9781432662
9781438216
9781445296
9781451521
9781461165
9781466963
9781473006
9781479292
9781484053
9781490767
9781494978
9781502608
9781508528
9781515303
9781521956
9781527693
9781533064
9781538679
9781546675
9781551192
9781557661
9781564009
9781568831
9781574629
9781581221
9781587996
9781594710
9781599653
9781606123
9781611616
9781615584
9781621382
9781628401
9781633589
9781640547
9781644331
9781651777
9781656416
9781661360
9781668928
9781674848
9781680525
9781685896
9781691206
9781696394
9781702192
9781707990
9781711714
9781718977
9781723738
9781728559
9781733625
9781739424
9781746443
9781752851
9781758833
9781764326
9781768415
9781773664
9781777692
9781784711
9781791669
9781798750
9781805769
9781811689
9781815778
9781822248
9781828901
9781834394
9781841291
9781846601
9781853620
9781857282
9781865156
9781871320
9781877057
9781882978
9781889142
9781895124
9781898725
9781907331
9781913434
9781918744
9781925031
9781931501
9781937482
9781943402
9781950666
9781956830
9781963300
9781970624
9781976178
9781982953
9781988507
9781995832
9782003034
9782008954
9782015119
9782021039
9782027875
9782032514
9782041181
9782045148
9782052106
9782057050
9782064618
9782071149
9782077557
9782084699
9782089337
9782095990
9782102887
9782108807
9782114117
9782121747
9782127484
9782136517
9782141766
9782147626
9782154767
9782159222
9782166730
9782171795
9782180829
9782188824
9782194745
9782200665
9782206402
9782213849
9782218304
9782226849
9782232464
9782238690
9782244671
9782251141
9782258282
9782264080
9782271771
9782277081
9782282940
9782288067
9782295513
9782301617
9782307476
9782314007
9782319866
9782327801
9782332745
9782340557
9782347027
9782353008
9782360821
9782367413
9782374615
9782380840
9782386700
9782395489
9782401836
9782410015
9782416607
9782422466
9782426372
9782437542
9782443767
9782449444
9782456585
9782463909
9782470196
9782476665
9782483745
9782491558
9782497417
9782504863
9782512005
9782518352
9782525188
9782531536
9782538555
9782546367
9782553447
9782559368
9782567302
9782573467
9782580425
9782588603
9782594158
9782604289
9782610637
9782617961
9782624675
9782632793
9782638957
9782647258
9782655864
9782663432
9782671123
9782678081
9782685039
9782693095
9782700969
9782706218
9782717692
9782725932
9782731853
9782739909
9782746806
9782752971
9782760112
9782766337
9782773234
9782781840
9782789714
9782796306
9782802409
9782809550
9782816081
9782825602
9782832621
9782839701
9782846659
9782853740
9782861857
9782868998
9782876872
9782884135
9782891337
9782897990
9782906779
9782911540
9782920573
9782927836
9782937113
9782942851
9782952616
9782957377
9782965983
9782970927
9782981791
9782986796
9782995829
9783000895
9783011027
9783016154
9783026408
9783030924
9783040201
9783048502
9783056376
9783062906
9783070048
9783077067
9783083475
9783090067
9783095194
9783101542
9783109476
9783115213
9783120829
9783126627
9783132975
9783139444
9783145060
9783150919
9783157389
9783164164
9783169779
9783174906
9783181070
9783188455
9783195474
9783200785
9783205545
9783212930
9783219034
9783224771
9783231973
9783238199
9783243326
9783248636
9783255411
9783260294
9783267374
9783273599
9783279214
9783286539
9783293192
9783299661
9783303140
9783310892
9783317544
9783322549
9783329629
9783334817
9783339944
9783346231
9783352456
9783358682
9783363138
9783370889
9783375772
9783381082
9783387735
9783392923
9783399759
9783406595
9783411966
9783417276
9783424112
9783429727
9783435220
9783440591
9783446939
9783453836
9783459451
9783465493
9783471963
9783477883
9783484658
9783490090
9783495767
9783501382
9783507791
9783513162
9783520669
9783524819
9783533608
9783538857
9783545632
9783552956
9783556802
9783567178
9783573464
9783579873
9783586343
9783592751
9783600014
9783604348
9783613381
9783620217
9783626443
9783632912
9783639748
9783646035
9783651528
9783659768
9783666115
9783673012
9783679299
9783684365
9783692421
9783696267
9783705483
9783711281
9783717934
9783723793
9783730751
9783735878
9783741249
9783748268
9783754799
9783761635
9783767433
9783773537
9783780739
9783785317
9783794899
9783800270
9783807106
9783813393
9783819252
9783826149
9783830605
9783838905
9783844277
9783852211
9783857826
9783863503
9783871254
9783878212
9783885170
9783890236
9783897865
9783904823
9783910622
9783916664
9783921303
9783928993
9783934364
9783942970
9783948280
9783954689
9783961342
9783968117
9783974952
9783980018
9783988319
9783995399
9784002113
9784008644
9784015175
9784023353
9784028846
9784036415
9784042335
9784050087
9784056373
9784062721
9784070533
9784077857
9784084144
9784088966
9784095924
9784102760
9784108680
9784114784
9784122840
9784130103
9784137122
9784143958
9784151038
9784156776
9784163795
9784172157
9784178077
9784185950
9784194434
9784202064
9784208228
9784217689
9784224219
9784233314
9784238563
9784248878
9784255836
9784261146
9784265479
9784275794
9784284644
9784291724
9784299048
9784306861
9784312720
9784320105
9784326819
9784335669
9784343604
9784350135
9784357459
9784363379
9784371375
9784376197
9784384497
9784392310
9784399207
9784406836
9784413916
9784420203
9784427466
9784435523
9784441321
9784449561
9784456152
9784464026
9784470435
9784478857
9784485754
9784493445
9784500708
9784508154
9784515478
9784523108
9784529944
9784537024
9784543799
9784551306
9784557165
9784567785
9784574743
9784582617
9784591284
9784597082
9784605749
9784612707
9784620031
9784629858
9784636450
9784643652
9784650122
9784657324
9784663610
9784671484
9784677648
9784685278
9784689977
9784697607
9784703405
9784709265
9784715246
9784722387
9784729284
9784733129
9784740392
9784747839
9784753698
9784759374
9784763769
9784771703
9784776830
9784783117
9784788610
9784795934
9784799963
9784808263
9784815099
9784820226
9784827795
9784833166
9784839635
9784845067
9784851720
9784859838
9784864782
9784871374
9784877843
9784883397
9784888280
9784895849
9784900365
9784907689
9784913976
9784920140
9784925267
9784930822
9784936559
9784943395
9784948217
9784955785
9784961766
9784967198
9784972264
9784978124
9784983373
9784987767
9784995336
9785000096
9785005528
9785011754
9785016637
9785024815
9785030309
9785035436
9785040807
9785045995
9785052464
9785057713
9785064061
9785070226
9785076329
9785082860
9785087437
9785095433
9785101659
9785106602
9785113255
9785118687
9785123265
9785129552
9785134984
9785141636
9785148656
9785154515
9785159886
9785164891
9785171238
9785177525
9785184422
9785191685
9785197361
9785203587
9785209202
9785214390
9785219395
9785228489
9785233189
9785239842
9785246006
9785252415
9785257725
9785263035
9785270970
9785278721
9785284031
9785290379
9785295872
9785301731
9785306675
9785314182
9785319370
9785327427
9785334324
9785341343
9785347691
9785353428
9785360081
9785365086
9785373997
9785380955
9785387302
9785395115
9785401035
9785407810
9785413914
9785420322
9785427402
9785434727
9785441196
9785447056
9785454319
9785458774
9785467136
9785473301
9785479648
9785486179
9785493747
9785500400
9785504978
9785514194
9785520786
9785525791
9785532993
9785539707
9785545993
9785551364
9785558872
9785565708
9785571384
9785579074
9785584445
9785591342
9785596897
9785603794
9785610385
9785616306
9785622775
9785628818
9785636874
9785644992
9785651889
9785658481
9785665012
9785670261
9785677219
9785686313
9785691623
9785698642
9785705722
9785711398
9785719150
9785724460
9785731235
9785740024
9785747043
9785753390
9785760714
9785766635
9785775729
9785784030
9785791232
9785797519
9785805148
9785812594
9785819491
9785826205
9785831637
9785840914
9785848300
9785855502
9785860934
9785869296
9785875277
9785882907
9785889620
9785897433
9785904574
9785911776
9785918429
9785925448
9785931551
9785938693
9785947115
9785955172
9785962008
9785969576
9785975802
9785983919
9785991061
9785999300
9786009066
9786013582
9786023897
9786029757
9786036715
9786044222
9786051485
9786060885
9786067232
9786074740
9786080050
9786087557
9786095980
9786104219
9786111177
9786118990
9786125704
9786132845
9786139254
9786148165
9786154695
9786162325
9786169344
9786176607
9786184114
9786192171
9786198580
9786206636
9786213411
9786221834
9786229097
9786239046
9786246248
9786251863
9786258089
9786265291
9786271089
9786277803
9786282014
9786291719
9786297334
9786303438
9786309663
9786314424
9786321504
9786325593
9786333101
9786339815
9786346528
9786352510
9786357515
9786364961
9786371309
9786377107
9786383210
9786389436
9786395601
9786400239
9786406770
9786410737
9786420259
9786425569
9786432527
9786438325
9786443025
9786450898
9786456513
9786462800
9786470429
9786475190
9786481965
9786488130
9786493867
9786501191
9786507356
9786513215
9786517610
9786528413
9786534638
9786539521
9786544953
9786552522
9786557832
9786563874
9786569672
9786575471
9786581574
9786586884
9786593415
9786598847
9786607270
9786613679
9786617890
9786625947
9786632233
9786637787
9786643830
9786648835
9786655488
9786660798
9786667267
9786676117
9786681672
9786689057
9786694489
9786701081
9786707489
9786713227
9786720063
9786725800
9786731354
9786737152
9786743439
9786750824
9786756867
9786763581
9786767853
9786775910
9786782807
9786787323
9786795441
9786802155
9786807404
9786814606
9786820953
9786824799
9786832855
9786837738
9786846039
9786852875
9786859772
9786865509
9786872162
9786879608
9786886810
9786893402
9786901337
9786907806
9786914459
9786920929
9786928802
9786935028
9786942901
9786947967
9786954986
9786961517
9786967071
9786972870
9786978912
9786986358
9786992584
9786999481
9787005096
9787011749
9787019195
9787024261
9787030731
9787037017
9787042633
9787049346
9787053070
9787060699
9787067474
9787076995
9787084442
9787089691
9787095672
9787104644
9787110565
9787118743
9787125152
9787131072
9787137237
9787143584
9787151641
9787159576
9787165374
9787172820
9787178252
9787183196
9787190704
9787197478
9787202239
9787210296
9787215240
9787222442
9787229095
9787234954
9787241912
9787248382
9787255767
9787261077
9787269378
9787275786
9787281340
9787287810
9787296416
9787301909
9787308318
9787315154
9787321624
9787326628
9787333647
9787342498
9787350005
9787356536
9787362029
9787370513
9787377654
9787384612
9787393401
9787398833
9787406462
9787411833
9787419768
9787423247
9787432829
9787437590
9787448821
9787455412
9787463103
9787469572
9787476775
9787484953
9787492949
9787499113
9787505278
9787514372
9787521818
9787528654
9787536528
9787543425
9787553801
9787562346
9787569182
9787576506
9787582914
9787588102
9787596830
9787602507
9787612577
9787618193
9787627897
9787634611
9787640776
9787648954
9787655546
9787659635
9787668241
9787678190
9787683805
9787687895
9787697843
9787705839
9787712309
9787720243
9787727445
9787736356
9787745206
9787751981
9787757536
9787767667
9787775968
9787783048
9787790617
9787800809
9787809232
9787816740
9787822782
9787834745
9787840909
9787847684
9787852872
9787859891
9787867643
9787873380
9787881009
9787886564
9787892118
9787898099
9787903897
9787908475
9787914884
9787920377
9787927640
9787934049
9787939603
9787945829
9787950711
9787957547
9787964017
9787969876
9787975186
9787982755
9787988065
9787994046
9788001065
9788007535
9788013394
9788019071
9788025967
9788031705
9788035916
9788042813
9788050137
9788055936
9788062833
9788067837
9788073331
9788078885
9788084622
9788089871
9788097745
9788103543
9788108975
9788115140
9788119290
9788126919
9788133389
9788138882
9788145718
9788151089
9788156460
9788162014
9788168484
9788173489
9788178189
9788186001
9788191433
9788197049
9788202603
9788207730
9788214383
9788220669
9788225735
9788232327
9788236599
9788243130
9788248806
9788255398
9788261929
9788267544
9788272793
9788278164
9788284878
9788290066
9788297634
9788303616
9788308926
9788315701
9788320156
9788326504
9788332607
9788340725
9788347622
9788353848
9788360683
9788365749
9788372280
9788377590
9788385097
9788391811
9788397793
9788403713
9788409756
9788415615
9788422695
9788429104
9788435268
9788442531
9788449367
9788455410
9788461635
9788468654
9788474270
9788482265
9788488063
9788494228
9788500148
9788507228
9788512783
9788521205
9788526027
9788533901
9788539882
9788545742
9788553005
9788557582
9788565517
9788571681
9788577785
9788582973
9788591335
9788597926
9788603847
9788610744
9788617397
9788622768
9788628139
9788635951
9788641078
9788648524
9788655238
9788661159
9788669521
9788674464
9788682277
9788689296
9788694362
9788704188
9788709376
9788716456
9788720058
9788727687
9788733851
9788739833
9788748317
9788755519
9788762172
9788767299
