9906659575
9906665617
9906669890
9906674467
9906679472
9906683867
9906688506
9906692778
9906696867
9906701201
9906705778
9906710112
9906714384
9906718657
9906723234
9906727873
9906732207
9906736479
9906740751
9906745451
9906750395
9906754667
9906758940
9906763029
9906767180
9906771391
9906775847
9906780241
9906785978
9906790861
9906795500
9906801420
9906807158
9906812956
9906819548
9906825224
9906831755
9906838713
9906844877
9906851530
9906856718
9906865629
9906873808
9906879423
9906886747
9906892607
9906900053
9906907743
9906915556
9906922331
9906928312
9906935392
9906942167
9906949552
9906956998
9906963834
9906972379
9906980497
9906987760
9906995023
9907000883
9907009855
9907014738
9907025114
9907032682
9907040922
9907047574
9907055692
9907063505
9907068815
9907078397
9907085782
9907091703
9907100309
9907106900
9907114286
9907121305
9907129178
9907136747
9907142911
9907150174
9907158780
9907164823
9907171598
9907179227
9907184720
9907192777
9907200772
9907208463
9907215787
9907222073
9907232755
9907238553
9907246426
9907253629
9907260403
9907268460
9907277371
9907284146
9907291287
9907298550
9907306607
9907312833
9907321194
9907330411
9907337491
9907345730
9907351590
9907360074
9907366604
9907374356
9907379971
9907388028
9907396512
9907404202
9907410794
9907416653
9907426113
9907432827
9907440335
9907448330
9907455776
9907463345
9907469143
9907477200
9907485012
9907493435
9907498684
9907506497
9907514492
9907519802
9907529812
9907536465
9907544521
9907551479
9907558315
9907565456
9907572536
9907578945
9907587490
9907596401
9907601528
9907611904
9907619228
9907624966
9907634548
9907641628
9907649990
9907657253
9907665188
9907673244
9907681057
9907686367
9907694606
9907703457
9907709926
9907719631
9907726162
9907734218
9907741359
9907749721
9907758388
9907765834
9907773342
9907779079
9907787136
9907794155
9907801906
9907806545
9907817653
9907826503
9907833949
9907842372
9907848842
9907857753
9907867335
9907875758
9907884975
9907891933
9907900416
9907906886
9907917201
9907926845
9907935634
9907944240
9907950709
9907959498
9907965724
9907973475
9907980616
9907990138
9907997157
9908005519
9908013209
9908020655
9908029567
9908039271
9908047023
9908054225
9908061366
9908070094
9908075953
9908084925
9908090479
9908099207
9908107813
9908115504
9908122035
9908130702
9908137354
9908147486
9908155177
9908162867
9908170618
9908176661
9908185450
9908190943
9908199000
9908207850
9908216517
9908224085
9908230433
9908236475
9908245142
9908252039
9908259668
9908268885
9908277430
9908284998
9908291040
9908300013
9908306910
9908314417
9908323084
9908331140
9908337549
9908345667
9908353662
9908359583
9908368616
9908378992
9908386804
9908394007
9908400720
9908409693
9908416589
9908424280
9908432031
9908439905
9908448022
9908454370
9908462915
9908469995
9908479639
9908488672
9908497034
9908503503
9908512475
9908520166
9908527551
9908534509
9908542077
9908551050
9908558557
9908565149
9908573571
9908579919
9908589257
9908595483
9908603662
9908611596
9908618310
9908625878
9908633386
9908640771
9908648645
9908656823
9908665063
9908671350
9908679101
9908685510
9908693871
9908701013
9908707665
9908715722
9908722558
9908730492
9908737267
9908745385
9908753930
9908761498
9908769311
9908776696
9908784569
9908792809
9908800500
9908807885
9908815697
9908826195
9908834435
9908843285
9908854027
9908862633
9908871788
9908875695
9908885582
9908895104
9908902489
9908909508
9908919091
9908926964
9908934838
9908942833
9908952294
9908960839
9908967491
9908975365
9908981529
9908989464
9908997460
9909004540
9909011986
9909016991
9909025414
9909031456
9909037376
9909044029
9909049278
9909059654
9909065941
9909074058
9909082359
9909088524
9909096519
9909105064
9909112022
9909116539
9909124656
9909131431
9909138695
9909143821
9909150535
9909156944
9909164695
9909170982
9909175560
9909183189
9909188560
9909196373
9909204429
9909210960
9909217735
9909223594
9909231285
9909237022
9909245262
9909251365
9909256370
9909262290
9909269676
9909277610
9909283286
9909290367
9909297752
9909306236
9909314903
9909322105
9909330039
9909335899
9909344016
9909351768
9909359824
9909366904
9909374107
9909379172
9909386863
9909392051
9909401389
9909407188
9909414145
9909421653
9909426414
9909433799
9909440391
9909447349
9909453818
9909463767
9909470725
9909476645
9909483176
9909490683
9909495505
9909503318
9909507834
9909517844
9909526633
9909532370
9909541648
9909550315
9909557578
9909565817
9909572531
9909580710
9909591147
9909597312
9909604025
9909612570
9909618369
9909626547
9909634482
9909642233
9909649557
9909656577
9909664206
9909672934
9909680685
9909689108
9909696554
9909705038
9909712363
9909720968
9909728476
9909736654
9909743918
9909752768
9909760153
9909768881
9909774862
9909783651
9909789389
9909799582
9909805319
9909812338
9909819967
9909828329
9909834738
9909840231
9909849874
9909855917
9909864767
9909872640
9909878378
9909885885
9909893697
9909901205
9909907125
9909913656
9909921957
9909928426
9909937032
9909943502
9909950521
9909958883
9909965536
9909971456
9909979635
9909987752
9909994649
9910000570
9910005941
9910015706
9910021139
9910029439
9910036764
9910043599
9910050924
9910057699
9910064229
9910071431
9910077779
9910086568
9910093038
9910101583
9910108174
9910116719
9910122640
9910130452
9910136373
9910144979
9910151143
9910160787
9910169271
9910175191
9910184957
9910189961
9910200215
9910208211
9910215657
9910223042
9910230122
9910239278
9910245259
9910254353
9910261189
9910269368
9910274983
9910283101
9910288533
9910296773
9910303670
9910309468
9910316060
9910322224
9910328755
9910336323
9910340169
9910349507
9910356282
9910361042
9910368000
9910374287
9910380635
9910387471
9910394795
9910399922
9910406453
9910412800
9910418476
9910423237
9910431172
9910440571
9910446064
9910454487
9910462971
9910469563
9910476826
9910483296
9910490070
9910497151
9910503620
9910509174
9910515156
9910519428
9910525959
9910532429
9910538349
9910544575
9910549519
9910555622
9910561542
9910566181
9910572834
9910578937
9910585041
9910590656
9910597065
9910603412
9910609211
9910615742
9910622150
9910628986
9910635517
9910641437
9910645344
9910651935
9910658588
9910664386
9910670917
9910676960
9910682941
9910687641
9910693256
9910699298
9910705707
9910710529
9910716205
9910722919
9910727924
9910733600
9910739765
9910745380
9910752094
9910758747
9910764484
9910771198
9910777606
9910783710
9910788287
9910795123
9910801776
9910809772
9910813922
9910820819
9910827716
9910834003
9910839191
9910844562
9910851520
9910857135
9910863788
9910872028
9910879413
9910885455
9910892535
9910899432
9910904986
9910911212
9910918353
9910924823
9910930316
9910937823
9910943438
9910951373
9910957354
9910963519
9910969622
9910976641
9910980975
9910988299
9910996417
9911001361
9911008075
9911015948
9911022723
9911028216
9911036456
9911044573
9911050311
9911058428
9911066241
9911072650
9911080950
9911086443
9911093035
9911098650
9911106707
9911112444
9911120684
9911126421
9911134112
9911140276
9911146197
9911154070
9911159808
9911166033
9911173174
9911179339
9911185992
9911192583
9911198687
9911206927
9911213274
9911219317
9911226275
9911232988
9911237932
9911245257
9911252703
9911259356
9911264605
9911271868
9911277239
9911284441
9911289751
9911296953
9911302507
9911310015
9911315325
9911322771
9911328081
9911335283
9911340532
9911348467
9911354631
9911359941
9911367571
9911372453
9911380144
9911384966
9911392656
9911397844
9911404009
9911410478
9911418108
9911424516
9911429155
9911436418
9911442827
9911449907
9911456987
9911464189
9911471086
9911477861
9911485002
9911492509
9911499284
9911504533
9911513261
9911521074
9911527849
9911533891
9911540849
9911548784
9911555620
9911560930
9911566789
9911574662
9911580583
9911589860
9911596696
9911603593
9911610368
9911615678
9911624467
9911631059
9911637834
9911646318
9911653520
9911659318
9911667497
9911676469
9911684403
9911690629
9911703019
9911711198
9911716752
9911726518
9911732560
9911740922
9911748795
9911754288
9911761430
9911769059
9911774369
9911782059
9911789200
9911796281
9911803300
9911810074
9911817093
9911824357
9911829789
9911836991
9911844071
9911851273
9911858841
9911866105
9911873246
9911880509
9911885819
9911893021
9911900284
9911907608
9911913407
9911920670
9911929032
9911936356
9911942337
9911949845
9911958145
9911962784
9911971512
9911977921
9911985733
9911991837
9911998795
9912006119
9912011551
9912019241
9912026932
9912032181
9912039993
9912046097
9912052505
9912058487
9912064529
9912070328
9912076553
9912082291
9912088333
9912094192
9912100845
9912107498
9912113357
9912120071
9912126724
9912132461
9912137466
9912144851
9912150711
9912156814
9912162918
9912168838
9912175491
9912180191
9912187332
9912192459
9912199844
9912207229
9912213394
9912219436
9912224014
9912230300
9912236404
9912242202
9912247085
9912253921
9912259231
9912265762
9912271987
9912276321
9912282607
9912288955
9912297378
9912301040
9912308364
9912315261
9912321304
9912325698
9912332900
9912340102
9912347549
9912356277
9912362868
9912367873
9912375136
9912379531
9912386794
9912392959
9912398269
9912404372
9912410048
9912414809
9912421462
9912426345
9912433608
9912439589
9912445510
9912451064
9912456984
9912462661
9912468215
9912475905
9912481581
9912486464
9912492507
9912498976
9912505446
9912511183
9912517714
9912523452
9912530287
9912535353
9912540358
9912548049
9912553664
9912560134
9912563979
9912572768
9912579115
9912584059
9912590163
9912597426
9912604384
9912611464
9912617567
9912623976
9912630995
9912635817
9912645583
9912650343
9912656874
9912663283
9912671339
9912676161
9912683363
9912690565
9912697096
9912702528
9912708449
9912715529
9912721815
9912727247
9912734938
9912740980
9912747816
9912753737
9912759962
9912768080
9912774733
9912782057
9912787184
9912793653
9912799025
9912807203
9912813551
9912819166
9912825331
9912833143
9912837599
9912844435
9912850904
9912857191
9912865186
9912870985
9912878248
9912883436
9912890455
9912896375
9912902967
9912909620
9912917677
9912922926
9912930616
9912937208
9912943922
9912950635
9912957838
9912965833
9912972608
9912979139
9912983961
9912990858
9912997327
9913004285
9913009290
9913018323
9913023450
9913030713
9913035596
9913042310
9913048841
9913056592
9913061719
9913070447
9913076368
9913083265
9913088697
9913095349
9913102307
9913108045
9913115125
9913121045
9913126233
9913134351
9913140454
9913145825
9913151563
9913159558
9913165906
9913171338
9913179028
9913185315
9913192151
9913198071
9913204053
9913212842
9913218884
9913226147
9913232251
9913239392
9913245312
9913253308
9913259717
9913267895
9913273205
9913282117
9913288281
9913295056
9913302929
9913309887
9913315808
9913330273
9913336926
9913344433
9913351330
9913357800
9913362439
9913369458
9913375500
9913383068
9913388073
9913395886
9913402600
9913409985
9913416821
9913424145
9913429211
9913438854
9913445629
9913454296
9913459850
9913467358
9913474316
9913481579
9913488232
9913494762
9913502392
9913509289
9913516247
9913524609
9913528759
9913538769
9913545605
9913552013
9913559276
9913567577
9913572338
9913581066
9913587719
9913598644
9913608532
9913615856
9913625805
9913635570
9913642650
9913652416
9913658764
9913666332
9913672130
9913680248
9913686595
9913692394
9913698070
9913704845
9913709728
9913716808
9913725780
9913730297
9913737071
9913743663
9913749339
9913754466
9913760814
9913768138
9913774913
9913781017
9913787547
9913793834
9913800426
9913806407
9913812572
9913819164
9913823924
9913831615
9913837535
9913843944
9913852183
9913857310
9913864574
9913871532
9913877574
9913882579
9913888255
9913895091
9913900157
9913905650
9913911754
9913919627
9913926219
9913931651
9913937449
9913942393
9913950328
9913953807
9913962718
9913968211
9913972667
9913979808
9913987376
9913992137
9913998057
9914002879
9914008921
9914016001
9914020701
9914028086
9914034617
9914040660
9914045603
9914052378
9914057932
9914063914
9914069895
9914075327
9914082163
9914088145
9914092112
9914100047
9914107554
9914112742
9914119639
9914125620
9914132517
9914138010
9914143687
9914151682
9914157786
9914167856
9914174387
9914181467
9914186411
9914197886
9914204233
9914210825
9914216746
9914221628
9914228525
9914235056
9914242868
9914248179
9914254465
9914261606
9914267893
9914273752
9914281992
9914288645
9914295847
9914303659
9914308969
9914315805
9914321848
9914329538
9914335581
9914342539
9914349191
9914354502
9914361398
9914369089
9914375925
9914382028
9914387827
9914394846
9914399362
9914406686
9914416025
9914420969
9914428720
9914434763
9914439951
9914447824
9914453439
9914460519
9914467599
9914475168
9914481515
9914486825
9914495065
9914501413
9914508127
9914514535
9914521371
9914528451
9914534128
9914540841
9914548715
9914553720
9914561105
9914567270
9914573678
9914582223
9914588021
9914595346
9914601022
9914609140
9914615304
9914620004
9914626962
9914633004
9914640817
9914647408
9914653756
9914660836
9914666024
9914673165
9914680123
9914686349
9914693124
9914699166
9914708627
9914716561
9914724740
9914734139
9914742318
9914747750
9914757210
9914762398
9914769906
9914775582
9914783883
9914789986
9914795785
9914801705
9914808846
9914815560
9914822274
9914829537
9914836556
9914843819
9914849495
9914857613
9914864754
9914871346
9914880928
9914886666
9914894722
9914901192
9914907662
9914914498
9914921761
9914928536
9914936836
9914943245
9914950997
9914957588
9914964241
9914969795
9914978096
9914983589
9914991280
9914998238
9915005867
9915012947
9915020760
9915028267
9915034126
9915043709
9915050545
9915055977
9915062385
9915070930
9915078865
9915086860
9915095405
9915103157
9915110542
9915117683
9915123115
9915131599
9915137458
9915147285
9915153877
9915161628
9915166816
9915174751
9915182197
9915189827
9915197090
9915203681
9915212043
9915218574
9915224922
9915233100
9915240302
9915246955
9915253913
9915259467
9915265083
9915271858
9915278877
9915284797
9915291145
9915298347
9915304145
9915309699
9915315986
9915323371
9915332160
9915338142
9915345527
9915351264
9915358893
9915364631
9915372932
9915379645
9915385566
9915391486
9915397346
9915401557
9915410224
9915417243
9915422980
9915429267
9915434577
9915440863
9915447089
9915452887
9915457953
9915464179
9915471015
9915476142
9915482489
9915486823
9915493781
9915501776
9915506598
9915513007
9915519843
9915525641
9915531134
9915536200
9915542182
9915551764
9915557745
9915562567
9915569586
9915574957
9915580756
9915588324
9915592719
9915599005
9915604742
9915610968
9915617255
9915622992
9915629217
9915634711
9915639777
9915646551
9915652045
9915658880
9915665045
9915671454
9915678351
9915684027
9915690069
9915695501
9915701300
9915707342
9915713019
9915719732
9915726263
9915731451
9915738348
9915744207
9915749578
9915755255
9915763128
9915769171
9915775335
9915780401
9915787237
9915793341
9915799871
9915806646
9915813116
9915819952
9915826483
9915831976
9915838690
9915844976
9915850652
9915857916
9915864080
9915871465
9915876104
9915884771
9915893255
9915900518
9915911321
9915918340
9915924078
9915930852
9915937627
9915944646
9915951116
9915957708
9915964239
9915970342
9915976812
9915982854
9915989385
9915995427
9916002385
9916006292
9916015569
9916022100
9916028508
9916033086
9916040776
9916048101
9916054570
9916061101
9916065923
9916072698
9916079167
9916085942
9916093022
9916099614
9916104619
9916112737
9916117681
9916125066
9916132085
9916138066
9916145879
9916151128
9916158269
9916164922
9916171941
9916177983
9916183293
9916190068
9916197026
9916203557
9916209050
9916215764
9916221196
9916228276
9916233708
9916240910
9916246281
9916253789
9916259282
9916267338
9916273564
9916280949
9916287236
9916293706
9916299870
9916305851
9916312260
9916319584
9916326176
9916332768
9916339055
9916345646
9916350468
9916357548
9916367802
9916373112
9916380925
9916388371
9916395390
9916401188
9916409001
9916416325
9916423405
9916430180
9916437138
9916444096
9916451115
9916455998
9916463383
9916472355
9916477604
9916484928
9916492741
9916498905
9916506412
9916513432
9916519901
9916531620
9916542362
9916548771
9916555302
9916563175
9916570072
9916578678
9916588871
9916597538
9916603092
9916610172
9916617191
9916624515
9916630008
9916638736
9916645877
9916651737
9916659000
9916664005
9916672306
9916679813
9916686222
9916690860
9916699161
9916706546
9916714542
9916719913
9916726932
9916734073
9916741092
9916747867
9916753116
9916761600
9916767459
9916772891
9916781680
9916790042
9916797794
9916803409
9916812747
9916818179
9916827396
9916832767
9916840884
9916848208
9916856204
9916864200
9916871524
9916879580
9916885928
9916891543
9916899112
9916904666
9916911685
9916917422
9916925662
9916931338
9916936953
9916940982
9916947573
9916952945
9916959719
9916964358
9916971621
9916975528
9916982547
9916988345
9916994082
9917000003
9917004336
9917012881
9917019595
9917024722
9917030886
9917035891
9917041934
9917047061
9917053408
9917061526
9917067385
9917072207
9917079104
9917084414
9917089907
9917095156
9917100588
9917108767
9917113100
9917119753
9917123476
9917129824
9917136477
9917142214
9917148440
9917153261
9917159609
9917164614
9917169985
9917177981
9917187319
9917195559
9917202456
9917207461
9917215273
9917219668
9917227785
9917234194
9917239870
9917245180
9917251833
9917257875
9917261782
9917268190
9917275759
9917280764
9917287355
9917292238
9917298036
9917304872
9917310976
9917316835
9917323549
9917330202
9917335390
9917341188
9917348207
9917353456
9917360109
9917365236
9917370851
9917378114
9917383058
9917391237
9917396974
9917403444
9917410219
9917414980
9917421754
9917426393
9917432985
9917439455
9917445131
9917452028
9917457765
9917464113
9917471559
9917476198
9917485353
9917491273
9917498903
9917505006
9917509584
9917517518
9917522889
9917530153
9917538758
9917545350
9917551515
9917556703
9917564515
9917572328
9917578858
9917585389
9917592042
9917598756
9917604371
9917611756
9917620728
9917626954
9917633119
9917638673
9917646119
9917654664
9917662476
9917670838
9917677003
9917686829
9917692078
9917698548
9917705567
9917712525
9917718629
9917726746
9917735841
9917749207
9917756837
9917766724
9917782288
9917788575
9917795472
9917802125
9917808899
9917815979
9917824036
9917829468
9917837647
9917843079
9917849854
9917855225
9917862915
9917869263
9917877930
9917884400
9917890747
9917897034
9917904419
9917908997
9917916138
9917922424
9917930237
9917934693
9917941956
9917948242
9917954834
9917962036
9917968445
9917973023
9917980530
9917986694
9917993042
9917999817
9918004578
9918013245
9918018188
9918024963
9918031311
9918037964
9918045105
9918051208
9918056213
9918063476
9918070617
9918080078
9918085815
9918094177
9918100708
9918106933
9918113403
9918119079
9918125183
9918134948
9918141723
9918148437
9918154785
9918160217
9918168396
9918173400
9918183105
9918189025
9918197692
9918203491
9918210327
9918216369
9918223144
9918230041
9918238403
9918245849
9918253112
9918258178
9918265807
9918272765
9918279968
9918288573
9918296813
9918302917
9918308837
9918317382
9918323241
9918331603
9918340331
9918347655
9918354125
9918362060
9918368529
9918376037
9918383605
9918392455
9918399230
9918410216
9918416869
9918425902
9918433104
9918441954
9918449279
9918457457
9918462645
9918471373
9918476622
9918484618
9918490050
9918498534
9918504332
9918512450
9918520323
9918527831
9918535094
9918541136
9918548094
9918552977
9918560790
9918566039
9918572386
9918580748
9918585875
9918592284
9918598875
9918604796
9918610045
9918616942
9918622191
9918629210
9918634520
9918641295
9918646544
9918654173
9918659239
9918666197
9918672362
9918678648
9918684569
9918690794
9918696898
9918704039
9918709898
9918715941
9918721800
9918727537
9918733336
9918739012
9918744810
9918751646
9918757505
9918763487
9918769712
9918776731
9918782408
9918788694
9918794126
9918800047
9918806028
9918810850
9918818540
9918824034
9918829710
9918834776
9918840696
9918846006
9918851194
9918858823
9918864683
9918870603
9918874815
9918880613
9918886777
9918891416
9918897642
9918904783
9918910459
9918916563
9918923460
9918928892
9918935483
9918941404
9918945432
9918952390
9918958249
9918963926
9918969175
9918974302
9918979551
9918993162
9918999387
9919006772
9919011838
9919019040
9919026242
9919036740
9919043393
9919048459
9919055967
9919061582
9919068112
9919074338
9919080197
9919085996
9919091977
9919098447
9919104428
9919111936
9919116940
9919122861
9919129331
9919135312
9919141049
9919149167
9919154538
9919161923
9919167600
9919175595
9919181638
9919188046
9919194089
9919199887
9919205991
9919213254
9919219723
9919225278
9919233090
9919237912
9919244076
9919251156
9919257260
9919264584
9919271664
9919278134
9919284787
9919289731
9919297726
9919302670
9919309811
9919316159
9919322384
9919329037
9919336850
9919342404
9919349057
9919356137
9919361813
9919367489
9919375973
9919381466
9919388119
9919393673
9919401730
9919407345
9919413876
9919422360
9919429623
9919434261
9919441647
9919447933
9919454525
9919460873
9919467098
9919474361
9919480587
9919486507
9919493221
9919500606
9919505733
9919511959
9919520443
9919527462
9919532101
9919539791
9919547237
9919553829
9919559017
9919566341
9919573299
9919578792
9919586422
9919591976
9919599117
9919605220
9919613643
9919619808
9919632015
9919638118
9919645992
9919652523
9919660701
9919666561
9919673641
9919679256
9919686214
9919692256
9919697566
9919704769
9919710323
9919717464
9919725337
9919731258
9919737422
9919743770
9919749996
9919756526
9919762630
9919769832
9919776546
9919783748
9919790584
9919797298
9919803950
9919811946
9919818782
9919825130
9919832027
9919839534
9919846187
9919851619
9919857600
9919865108
9919873530
9919878962
9919887385
9919894954
9919901851
9919909480
9919916560
9919922969
9919929744
9919935969
9919942012
9919950618
9919957453
9919964472
9919971308
9919978205
9919985102
9919991816
9919997859
9920006465
9920012812
9920020503
9920027033
9920034724
9920040522
9920049006
9920058100
9920065058
9920073481
9920080866
9920086665
9920094599
9920100458
9920109309
9920116999
9920122370
9920130671
9920136042
9920145624
9920151301
9920158930
9920166254
9920173151
9920182428
9920189325
9920196772
9920202631
9920209162
9920217524
9920223932
9920231745
9920238031
9920246210
9920252008
9920258783
9920263910
9920270868
9920277582
9920283625
9920290460
9920296808
9920302057
9920309931
9920315607
9920323602
9920330194
9920336237
9920342035
9920351434
9920355890
9920363580
9920369562
9920375909
9920381891
9920388788
9920395319
9920401971
9920408868
9920413507
9920421686
9920428583
9920435174
9920439874
9920448053
9920453302
9920460382
9920465875
9920473199
9920478387
9920485467
9920490716
9920497186
9920502069
9920509454
9920514886
9920521173
9920526727
9920532525
9920539300
9920544915
9920551141
9920555474
9920562921
9920567742
9920574212
9920579095
9920585748
9920590508
9920597955
9920603265
9920608270
9920614922
9920620660
9920626763
9920632501
9920638726
9920644952
9920650750
9920655694
9920662774
9920667657
9920674798
9920681329
9920685479
9920692437
9920698663
9920704339
9920709527
9920716912
9920722527
9920728814
9920735955
9920740227
9920747063
9920754021
9920759636
9920764885
9920772210
9920775567
9920782830
9920788994
9920796868
9920804253
9920810296
9920816887
9920823540
9920829949
9920835198
9920841790
9920850212
9920854729
9920860955
9920866753
9920873894
9920881035
9920892143
9920900200
9920910210
9920919365
9920924797
9920934990
9920941032
9920949150
9920955315
9920961662
9920967766
9920974113
9920981010
9920987724
9920993767
9921000542
9921007255
9921012749
9921020317
9921026543
9921033256
9921040397
9921047111
9921054069
9921059807
9921067558
9921073478
9921081169
9921088249
9921095512
9921101494
9921107048
9921113517
9921120536
9921127616
9921135063
9921139030
9921146904
9921154655
9921161003
9921168327
9921174919
9921182182
9921189140
9921193656
9921202018
9921207939
9921216483
9921223319
9921228324
9921235404
9921241508
9921247978
9921255241
9921263053
9921270011
9921276115
9921281425
9921288261
9921295280
9921302055
9921308341
9921316337
9921323600
9921331290
9921336478
9921342338
9921351127
9921358451
9921367057
9921374320
9921381156
9921388419
9921393485
9921401053
9921406180
9921415274
9921420951
9921429129
9921435599
9921440787
9921446769
9921454764
9921462149
9921469962
9921480948
9921487540
9921495108
9921501517
9921512076
9921519400
9921528189
9921539114
9921544913
9921551871
9921559622
9921566641
9921572623
9921580740
9921586844
9921593619
9921601248
9921608023
9921614065
9921620779
9921628775
9921637564
9921643423
9921651419
9921657522
9921664541
9921670645
9921678518
9921684073
9921693411
9921699453
9921706472
9921712027
9921720572
9921726553
9921734426
9921742361
9921750540
9921756216
9921765737
9921772573
9921782156
9921789785
9921794912
9921802908
9921810964
9921816335
9921823110
9921830068
9921837698
9921845266
9921852529
9921860464
9921868764
9921876455
9921880971
9921890615
9921897634
9921903371
9921909231
9921916677
9921922414
9921929555
9921937063
9921943166
9921949148
9921954824
9921960744
9921967397
9921973562
9921980153
9921985891
9921991811
9921997854
9922004567
9922008901
9922016225
9922023671
9922029958
9922035024
9922041371
9922048390
9922054738
9922059194
9922066518
9922074819
9922080190
9922087087
9922092336
9922098561
9922105214
9922111501
9922116933
9922123891
9922131520
9922136891
9922142506
9922149464
9922155812
9922161183
9922168568
9922175404
9922180959
9922188039
9922194203
9922199879
9922206471
9922213307
9922220021
9922225453
9922230885
9922238026
9922244191
9922248158
9922254201
9922260426
9922266041
9922272816
9922279103
9922284291
9922288990
9922295399
9922302418
9922308094
9922313343
9922319081
9922324635
9922330799
9922336354
9922342518
9922349537
9922355885
9922361988
9922368458
9922373829
9922380360
9922386219
9922391285
9922399220
9922404225
9922411244
9922416920
9922423145
9922428944
9922435230
9922441456
9922448292
9922454273
9922460133
9922466053
9922471851
9922477467
9922483387
9922490711
9922495228
9922502979
9922508533
9922515980
9922521534
9922527454
9922534839
9922543567
9922549610
9922555835
9922562793
9922569080
9922574878
9922580921
9922588977
9922594410
9922601184
9922606495
9922614185
9922621509
9922627307
9922635608
9922642505
9922648853
9922655200
9922661609
9922668872
9922675098
9922681873
9922688220
9922694080
9922700000
9922708057
9922715015
9922721607
9922727100
9922733691
9922740894
9922747791
9922753711
9922761646
9922768665
9922774341
9922783435
9922789050
9922801684
9922808154
9922815784
9922821948
9922829089
9922834399
9922844409
9922851855
9922857959
9922864795
9922870898
9922876513
9922882617
9922889148
9922895861
9922903491
9922907946
9922915942
9922920703
9922928393
9922934619
9922941882
9922949450
9922955798
9922960314
9922967517
9922974597
9922981066
9922987658
9922992724
9923000109
9923006701
9923013964
9923018908
9923025927
9923032458
9923039477
9923046496
9923053088
9923058093
9923065050
9923072192
9923078295
9923083300
9923090319
9923097582
9923104113
9923111132
9923118090
9923124193
9923132189
9923138109
9923144762
9923153124
9923160998
9923166918
9923174242
9923179796
9923187609
9923195299
9923201525
9923206896
9923216173
9923221605
9923228929
9923234240
9923243334
9923249071
9923257250
9923265062
9923273668
9923279039
9923286119
9923293443
9923301439
9923306993
9923314440
9923322435
9923330431
9923336168
9923343675
9923351366
9923356920
9923365343
9923372789
9923379625
9923387620
9923394212
9923400804
9923409166
9923415636
9923424058
9923430467
9923438524
9923447618
9923459581
9923465318
9923474473
9923483445
9923491563
9923499803
9923506761
9923514085
9923522325
9923526780
9923536607
9923543504
9923550706
9923557481
9923563645
9923569871
9923578843
9923585557
9923593797
9923600511
9923606492
9923613755
9923621018
9923628648
9923636277
9923642625
9923649705
9923656968
9923663193
9923669846
9923674546
9923682664
9923687302
9923693589
9923699753
9923706040
9923712754
9923718979
9923725693
9923731797
9923736985
9923744370
9923749741
9923757554
9923762864
9923769761
9923776047
9923781601
9923786850
9923794785
9923800949
9923807114
9923813462
9923819748
9923826157
9923832321
9923839402
9923844040
9923851181
9923857468
9923861801
9923869126
9923875717
9923882065
9923888779
9923895676
9923901169
9923907333
9923912460
9923919785
9923926254
9923931931
9923938217
9923942184
9923948959
9923955612
9923959518
9923967758
9923972580
9923979294
9923984482
9923990585
9923996994
9924001022
9924007187
9924012985
9924018783
9924025619
9924030868
9924034775
9924042038
9924047775
9924053817
9924059372
9924066208
9924073166
9924078293
9924084884
9924093856
9924103561
9924111679
9924115341
9924124069
9924130233
9924136215
9924172714
9924179733
9924186019
9924192001
9924199325
9924206100
9924212447
9924218734
9924226119
9924232162
9924238021
9924244491
9924250228
9924256026
9924262618
9924268478
9924275619
9924281295
9924288070
9924295150
9924300704
9924306258
9924314681
9924321395
9924329391
9924335494
9924340133
9924347762
9924354476
9924360030
9924367537
9924375533
9924381636
9924387984
9924394393
9924400618
9924405074
9924412581
9924420272
9924425704
9924433028
9924438338
9924446517
9924450362
9924458541
9924465560
9924471968
9924479170
9924484419
9924491438
9924496748
9924504622
9924511641
9924519820
9924526289
9924532759
9924538557
9924544783
9924551802
9924556502
9924564558
9924570357
9924577864
9924583784
9924590132
9924597029
9924603377
9924610762
9924617659
9924624434
9924629622
9924636580
9924642683
9924649946
9924656538
9924668989
9924675642
9924682600
9924689375
9924694380
9924702559
9924706587
9924715437
9924722456
9924728926
9924733625
9924741194
9924747724
9924754316
9924759077
9924767439
9924774702
9924779524
9924787397
9924792341
9924800276
9924805158
9924813886
9924818647
9924825910
9924832868
9924838483
9924845686
9924851972
9924859541
9924865766
9924872846
9924879499
9924885602
9924892744
9924898359
9924906843
9924913007
9924921613
9924928266
9924935407
9924942365
9924948163
9924954206
9924962385
9924969159
9924979047
9924986005
9924992841
9924999616
9925005902
9925012006
9925019269
9925025373
9925032758
9925038739
9925047101
9925053083
9925059857
9925067548
9925074567
9925080853
9925089581
9925096173
9925103742
9925109540
9925117535
9925125958
9925132245
9925140179
9925149213
9925155682
9925164166
9925170209
9925178509
9925182660
9925191083
9925197491
9925206586
9925213666
9925220135
9925227276
9925234173
9925241437
9925249310
9925254071
9925264325
9925272076
9925279705
9925287579
9925293377
9925301068
9925308575
9925316693
9925322308
9925330120
9925338970
9925345989
9925351483
9925358746
9925366924
9925376568
9925384625
9925390606
9925397991
9925403973
9925409283
9925416668
9925421978
9925427898
9925434429
9925440289
9925447247
9925453045
9925458477
9925465313
9925471966
9925477764
9925485271
9925491680
9925498028
9925503094
9925509258
9925515178
9925521282
9925529156
9925534038
9925540508
9925547283
9925553142
9925560039
9925567302
9925574199
9925578899
9925583843
9925590374
9925597393
9925603069
9925609478
9925615032
9925620952
9925626750
9925632305
9925638042
9925644390
9925651164
9925657146
9925663188
9925668193
9925672954
9925679729
9925684551
9925691692
9925698711
9925704753
9925710124
9925716899
9925721111
9925728130
9925732097
9925739177
9925745280
9925751506
9925757182
9925761699
9925768413
9925774882
9925780009
9925786540
9925793193
9925798198
9925805888
9925811503
9925817363
9925823100
9925829814
9925835551
9925841655
9925847392
9925854289
9925860576
9925866801
9925872966
9925879496
9925885783
9925891337
9925899760
9925905253
9925912455
9925917826
9925924723
9925931498
9925939494
9925950724
9925956034
9925964762
9925971964
9925979228
9925986308
9925992533
9925998576
9926005900
9926012064
9926018046
9926024088
9926030497
9926037272
9926044108
9926050211
9926057108
9926064005
9926070353
9926076456
9926082926
9926090067
9926094889
9926102518
9926110087
9926116190
9926121012
9926129435
9926134928
9926142801
9926148172
9926154642
9926160013
9926166544
9926174967
9926180582
9926189249
9926195047
9926200846
9926208109
9926211954
9926219889
9926226358
9926234110
9926242411
9926249185
9926255838
9926261637
9926269388
9926274881
9926282388
9926288248
9926297403
9926301492
9926309976
9926316324
9926322122
9926328287
9926335489
9926342874
9926349039
9926353616
9926361490
9926368082
9926374673
9926381875
9926386941
9926395364
9926400308
9926408548
9926413980
9926421182
9926426553
9926433328
9926440347
9926446267
9926451700
9926459024
9926464456
9926471780
9926477273
9926485025
9926492532
9926500467
9926507241
9926512490
9926520059
9926528115
9926535562
9926542581
9926549966
9926555215
9926561929
9926569192
9926577004
9926585916
9926591409
9926600198
9926608621
9926619729
9926627297
9926634011
9926641213
9926647927
9926654397
9926661599
9926666482
9926675149
9926680764
9926688271
9926696084
9926703103
9926711037
9926718422
9926723916
9926732461
9926737954
9926743203
9926752602
9926759499
9926766762
9926775429
9926780861
9926788918
9926794228
9926802834
9926808266
9926816567
9926821877
9926830239
9926835732
9926844521
9926850563
9926858803
9926864540
9926871987
9926879677
9926887245
9926893471
9926900063
9926908730
9926916237
9926923439
9926930214
9926938393
9926945106
9926952248
9926960609
9926967689
9926974220
9926981361
9926987404
9926995766
9927003578
9927011329
9927018959
9927025306
9927033058
9927038612
9927047462
9927054542
9927061195
9927068214
9927074989
9927081215
9927087196
9927092994
9927099464
9927105751
9927111244
9927119239
9927124366
9927130531
9927135658
9927142799
9927148719
9927154395
9927161231
9927168189
9927173988
9927180335
9927186195
9927191200
9927198280
9927204322
9927210914
9927214637
9927222694
9927228553
9927234534
9927240577
9927248328
9927255225
9927260841
9927267554
9927274146
9927281165
9927288734
9927295508
9927301307
9927309485
9927314368
9927320044
9927327064
9927331824
9927338599
9927344275
9927350074
9927355445
9927360877
9927367652
9927371619
9927378089
9927384192
9927389991
9927396155
9927402259
9927408240
9927413306
9927420264
9927425696
9927432166
9927439673
9927445532
9927449500
9927455664
9927463477
9927467871
9927475134
9927481482
9927486853
9927493079
9927498755
9927503882
9927511328
9927516272
9927522864
9927527808
9927535437
9927541235
9927548193
9927551855
9927559546
9927565710
9927571631
9927578345
9927584387
9927590613
9927597693
9927602820
9927607702
9927614416
9927620093
9927628515
9927633093
9927640356
9927646460
9927653601
9927658972
9927665503
9927673193
9927678442
9927685095
9927690649
9927698278
9927704382
9927711096
9927714758
9927723730
9927728124
9927736181
9927742956
9927749731
9927755224
9927764013
9927770666
9927776708
9927783361
9927790685
9927797704
9927804235
9927809484
9927816320
9927821630
9927831823
9927839025
9927847631
9927856908
9927863256
9927870702
9927878881
9927886693
9927892919
9927899511
9927906530
9927912572
9927920446
9927927770
9927934057
9927941015
9927945531
9927952489
9927958593
9927965612
9927971837
9927978673
9927984716
9927991613
9927996251
9928004491
9928011632
9928016515
9928023229
9928030370
9928038732
9928044225
9928051122
9928058873
9928065343
9928069432
9928082860
9928089757
9928095921
9928101292
9928107457
9928113988
9928121739
9928128148
9928134251
9928140660
9928147679
9928155064
9928161778
9928167393
9928174229
9928179600
9928187291
9928192601
9928199559
9928204930
9928212987
9928218541
9928227452
9928234288
9928241551
9928245823
9928254673
9928261692
9928267186
9928275853
9928281224
9928287083
9928294712
9928301182
9928308079
9928314610
9928321995
9928329075
9928336277
9928343174
9928349888
9928356663
9928361973
9928369419
9928377354
9928386082
9928392674
9928400486
9928406773
9928414890
9928421177
9928428501
9928435337
9928445774
9928453037
9928459446
9928466648
9928474460
9928481541
9928487522
9928496433
9928511265
9928518772
9928527012
9928534946
9928542881
9928551365
9928558628
9928564914
9928571628
9928578159
9928584018
9928591342
9928599887
9928606174
9928612339
9928620822
9928627719
9928633701
9928640170
9928649326
9928655856
9928663547
9928670017
9928677402
9928685825
9928692294
9928698337
9928707492
9928713351
9928720737
9928728244
9928737033
9928742038
9928749667
9928756686
9928763156
9928770480
9928775119
9928782260
9928788363
9928794467
9928801669
9928806369
9928813998
9928818759
9928825290
9928831393
9928835910
9928843356
9928849948
9928856601
9928862338
9928867160
9928874667
9928881503
9928888034
9928893344
9928899203
9928905978
9928911959
9928918734
9928924594
9928929782
9928937045
9928942233
9928948458
9928953585
9928960543
9928965792
9928973116
9928981478
9928986666
9928994296
9928999056
9929006625
9929012606
9929018465
9929024142
9929028231
9929034579
9929041231
9929046908
9929053072
9929057772
9929064303
9929069857
9929077242
9929082735
9929086947
9929094210
9929098910
9929104525
9929111483
9929116366
9929121615
9929128450
9929135531
9929140047
9929147432
9929153719
9929162508
9929167757
9929175203
9929180513
9929188570
9929194429
9929199617
9929207369
9929213350
9929218904
9929224825
9929230379
9929236788
9929243318
9929249300
9929256685
9929261019
9929268221
9929274873
9929280061
9929286775
9929292146
9929299410
9929304842
9929312654
9929318819
9929324861
9929329866
9929337129
9929342744
9929349092
9929355562
9929361848
9929369905
9929374544
9929381319
9929387483
9929394014
9929400789
9929408174
9929414888
9929421357
9929426118
9929434297
9929441194
9929447847
9929454255
9929461152
9929467256
9929474336
9929480256
9929485139
9929492952
9929499910
9929506196
9929513093
9929518830
9929525727
9929532868
9929539094
9929544160
9929552094
9929558015
9929563569
9929570893
9929576447
9929584504
9929590730
9929596650
9929602509
9929610993
9929617158
9929624726
9929630646
9929636872
9929642976
9929650727
9929657868
9929663239
9929671723
9929677582
9929683991
9929690034
9929695588
9929701569
9929709137
9929716095
9929722382
9929728241
9929735199
9929740448
9929748017
9929755097
9929768830
9929775299
9929782563
9929789582
9929797699
9929802277
9929812165
9929816620
9929824616
9929832794
9929838104
9929845673
9929852936
9929860809
9929866669
9929873627
9929879425
9929884857
9929889862
9929897369
9929903534
9929910126
9929914398
9929922150
9929927948
9929934418
9929941315
9929946503
9929953766
9929960541
9929967377
9929973968
9929978729
9929986603
9929991424
9929999237
9930006927
9930012420
9930019500
9930025970
9930033355
9930041046
9930048126
9930054168
9930061370
9930069610
9930075836
9930084503
9930090362
9930097259
9930105010
9930112457
9930120635
9930128204
9930135772
9930143707
9930149383
9930157134
9930164703
9930175689
9930180206
9930189727
9930196990
9930203399
9930209808
9930217864
9930225738
9930234588
9930241973
9930250518
9930256133
9930263946
9930270843
9930279204
9930286834
9930294402
9930300506
9930307952
9930313811
9930321563
9930329436
9930335051
9930344695
9930350188
9930357634
9930365691
9930372710
9930380584
9930387664
9930394561
9930401702
9930407744
9930415618
9930421660
9930432280
9930439116
9930445281
9930451140
9930461699
9930468047
9930475798
9930482939
9930488493
9930495573
9930501006
9930507414
9930514677
9930519865
9930524870
9930532133
9930537688
9930542937
9930549528
9930556120
9930563627
9930570097
9930577421
9930582670
9930589445
9930594816
9930602568
9930607878
9930615324
9930620695
9930628080
9930634001
9930639738
9930645170
9930651457
9930656950
9930662809
9930668669
9930674467
9930680632
9930686308
9930692045
9930698271
9930703092
9930709257
9930714506
9930720610
9930725981
9930732328
9930739164
9930744413
9930749967
9930755277
9930761381
9930766935
9930773161
9930779874
9930785124
9930790983
9930796171
9930802030
9930807706
9930813200
9930820158
9930827177
9930831937
9930837369
9930843351
9930848783
9930854398
9930862394
9930867216
9930874479
9930879056
9930886442
9930891874
9930899320
9930908658
9930912992
9930919889
9930926786
9930932645
9930937955
9930943815
9930950162
9930956144
9930963041
9930967618
9930976041
9930981107
9930988553
9930992765
9931001737
9931015836
9931020413
9931028165
9931035062
9931042203
9931051969
9931057401
9931065457
9931071622
9931078519
9931084683
9931089993
9931098233
9931104764
9931110928
9931117337
9931123685
9931130215
9931134793
9931142178
9931148953
9931155484
9931162625
9931169156
9931173855
9931180935
9931187955
9931194607
9931201382
9931207791
9931213284
9931219876
9931226590
9931233120
9931238797
9931245266
9931253872
9931259304
9931266629
9931271817
9931278225
9931283596
9931291287
9931298550
9931304775
9931310696
9931317776
9931324368
9931332058
9931339565
9931344143
9931353115
9931360012
9931366970
9931373928
9931379116
9931386745
9931393032
9931400295
9931406704
9931413662
9931419521
9931426540
9931433010
9931438686
9931445644
9931453030
9931458645
9931465969
9931471889
9931476162
9931483303
9931491176
9931495815
9931503383
9931508449
9931516262
9931521084
9931528042
9931534633
9931542812
9931548305
9931554897
9931561916
9931568691
9931573574
9931580532
9931588222
9931595546
9931600795
9931609096
9931614528
9931624721
9931637172
9931644496
9931654567
9931663295
9931671535
9931679897
9931686305
9931693385
9931699916
9931708278
9931714931
9931722072
9931730250
9931737086
9931744350
9931751124
9931756923
9931762721
9931771937
9931778651
9931784877
9931793849
9931800929
9931808741
9931813990
9931821132
9931828456
9931836634
9931842372
9931850978
9931856349
9931863673
9931870814
9931876124
9931886073
9931892543
9931900416
9931906092
9931914881
9931923121
9931928919
9931936366
9931943385
9931950099
9931959315
9931966700
9931972498
9931979334
9931987208
9931995814
9932003443
9932010157
9932016322
9932024927
9932032374
9932038111
9932047632
9932056116
9932062037
9932070643
9932078089
9932083826
9932091028
9932098780
9932105799
9932111536
9932120630
9932126734
9932133631
9932140345
9932145166
9932153650
9932158594
9932164331
9932170557
9932175562
9932181726
9932187036
9932194361
9932201136
9932206751
9932212061
9932217798
9932224878
9932231104
9932236841
9932243311
9932249719
9932256067
9932261011
9932267542
9932272424
9932279443
9932286035
9932292200
9932303552
9932309534
9932315515
9932322412
9932328821
9932339014
9932344934
9932350610
9932356470
9932362817
9932369104
9932373926
9932380517
9932385217
9932392175
9932397546
9932403589
9932409021
9932415185
9932420739
9932428125
9932433984
9932439599
9932445581
9932449853
9932457116
9932465844
9932472253
9932477624
9932484826
9932490869
9932496484
9932501794
9932507470
9932514001
9932519555
9932525659
9932532617
9932539819
9932546716
9932552453
9932558190
9932564538
9932570947
9932577538
9932583703
9932588647
9932595055
9932600243
9932607873
9932613183
9932618798
9932624840
9932630456
9932636864
9932641625
9932649254
9932654687
9932660790
9932668236
9932674523
9932679406
9932685143
9932692956
9932700158
9932706505
9932712059
9932717492
9932722924
9932728783
9932736412
9932741051
9932747338
9932753075
9932760704
9932765526
9932772057
9932778282
9932787316
9932793053
9932800682
9932807945
9932812462
9932820458
9932828270
9932833702
9932840172
9932846642
9932854454
9932863426
9932870506
9932878807
9932888451
9932898827
9932904930
9932911400
9932919701
9932926048
9932933128
9932939659
9932945885
9932953148
9932958458
9932965660
9932973411
9932979271
9932986534
9932991661
9932998680
9933004783
9933012535
9933020347
9933026329
9933033470
9933041343
9933047142
9933055320
9933061668
9933069114
9933076988
9933083091
9933090232
9933099082
9933105552
9933113975
9933120078
9933127220
9933132652
9933140403
9933146873
9933153953
9933159751
9933166709
9933171592
9933179466
9933188560
9933194419
9933202476
9933208945
9933214927
9933221152
9933228110
9933236716
9933241904
9933249656
9933255027
9933261069
9933268332
9933274070
9933281577
9933288413
9933294578
9933301963
9933308188
9933313865
9933319968
9933328086
9933334922
9933342734
9933349570
9933356589
9933362387
9933370627
9933376548
9933383200
9933388571
9933398398
9933404929
9933410971
9933418784
9933425742
9933431052
9933438193
9933445334
9933454855
9933464438
9933472922
9933482199
9933493307
9933501425
9933508688
9933518088
9933525351
9933531943
9933538840
9933545126
9933551047
9933558188
9933564169
9933572714
9933578512
9933586691
9933592795
9933601034
9933607992
9933614523
9933621359
9933630880
9933637411
9933643759
9933652182
9933658407
9933664389
9933673727
9933679525
9933688253
9933693624
9933698812
9933707479
9933714804
9933719442
9933726949
9933733968
9933740316
9933747091
9933752828
9933757528
9933765340
9933770528
9933776266
9933783102
9933789205
9933793783
9933801290
9933805868
9933813680
9933818868
9933826131
9933831502
9933838033
9933845296
9933850484
9933855672
9933862874
9933868245
9933874776
9933880147
9933887044
9933892293
9933899617
9933904928
9933911092
9933916280
9933923238
9933930989
9933937337
9933943258
9933949910
9933956014
9933962361
9933968892
9933975240
9933981221
9933986775
9933992330
9933998067
9934003926
9934009725
9934020284
9934026326
9934031758
9934038228
9934044881
9934049031
9934055501
9934062581
9934068929
9934074666
9934079182
9934086995
9934092244
9934098592
9934108357
9934115010
9934123067
9934130269
9934136861
9934143391
9934149495
9934156453
9934163106
9934169087
9934175923
9934182332
9934188008
9934193013
9934200215
9934205281
9934212178
9934217610
9934223713
9934231404
9934237446
9934243611
9934250141
9934255635
9934261921
9934268452
9934275532
9934281025
9934287251
9934294270
9934300801
9934308552
9934313191
9934321003
9934327961
9934336079
9934342365
9934348835
9934357380
9934362141
9934369770
9934374653
9934381611
9934388020
9934394123
9934401203
9934408405
9934413288
9934420612
9934425495
9934433430
9934440388
9934446003
9934452961
9934459064
9934466144
9934472431
9934477924
9934485676
9934491230
9934497394
9934504474
9934510578
9934518146
9934523456
9934528827
9934536213
9934541828
9934549518
9934555072
9934563129
9934569538
9934575153
9934580524
9934588520
9934594623
9934600055
9934608417
9934614215
9934620319
9934626300
9934631671
9934639728
9934645953
9934652606
9934659259
9934666156
9934672626
9934679401
9934684161
9934691241
9934697772
9934704303
9934711444
9934718036
9934727252
9934733539
9934740436
9934748370
9934754779
9934763263
9934770404
9934777118
9934782794
9934790484
9934796100
9934802997
9934809649
9934815936
9934823016
9934829303
9934836566
9934843158
9934849932
9934854571
9934862200
9934870684
9934877703
9934884417
9934889422
9934897967
9934903460
9934910845
9934916461
9934923052
9934930010
9934936541
9934942095
9934948687
9934956439
9934962969
9934969134
9934976397
9934984087
9934990923
9934996294
9935004717
9935010149
9935016985
9935024065
9935030840
9935038470
9935045611
9935051043
9935057940
9935064959
9935069903
9935079119
9935084856
9935093340
9935100542
9935107744
9935112749
9935120928
9935126360
9935135332
9935143511
9935154680
9935162432
9935170305
9935175981
9935184587
9935190019
9935198381
9935205950
9935213152
9935220537
9935227434
9935234514
9935242265
9935250322
9935258806
9935264482
9935273393
9935277910
9935288408
9935293169
9935301958
9935309404
9935315691
9935322343
9935331865
9935338212
9935346574
9935353166
9935359331
9935367753
9935373674
9935382341
9935391313
9935397050
9935405351
9935411088
9935419084
9935424699
9935433549
9935441911
9935453813
9935460832
9935468400
9935474626
9935480607
9935487260
9935494218
9935500382
9935506181
9935512101
9935518998
9935525102
9935531571
9935537614
9935543900
9935548295
9935555985
9935563126
9935569657
9935574601
9935580827
9935586930
9935593339
9935600968
9935605668
9935613236
9935617997
9935625565
9935630326
9935637162
9935643571
9935651383
9935656022
9935663102
9935669816
9935675309
9935682084
9935687394
9935693619
9935700211
9935704911
9935710648
9935717484
9935723038
9935728348
9935734024
9935739701
9935747086
9935752884
9935757157
9935763687
9935769547
9935775467
9935780533
9935787247
9935792618
9935798172
9935805130
9935809158
9935816116
9935820999
9935828079
9935833084
9935839249
9935844803
9935851700
9935856888
9935862503
9935870499
9935875565
9935882462
9935888016
9935895523
9935899612
9935906509
9935913772
9935918838
9935926041
9935930801
9935937881
9935943497
9935950088
9935954178
9935961441
9935967666
9935974502
9935980240
9935987747
9935992630
9936000259
9936011306
9936017532
9936025039
9936033096
9936039627
9936045852
9936053298
9936060623
9936067764
9936075576
9936079605
9936088638
9936095230
9936102126
9936106826
9936114456
9936121475
9936127883
9936132522
9936139724
9936146560
9936153030
9936160354
9936167129
9936173965
9936179214
9936185744
9936192275
9936199050
9936206191
9936212234
9936219131
9936225173
9936229995
9936236892
9936243911
9936250136
9936255080
9936263564
9936268935
9936274795
9936281752
9936288466
9936293776
9936300979
9936306411
9936313674
9936318984
9936326613
9936331923
9936338332
9936343703
9936350417
9936357741
9936365370
9936371535
9936378737
9936385024
9936391127
9936397475
9936403029
9936409194
9936418166
9936422621
9936429518
9936436293
9936442946
9936449660
9936456129
9936464308
9936471388
9936477248
9936484389
9936490492
9936495375
9936503249
9936508192
9936516188
9936521681
9936529005
9936534376
9936541395
9936547682
9936554640
9936561598
9936570326
9936576429
9936583082
9936589552
9936595533
9936604689
9936610670
9936621168
9936627516
9936634230
9936640333
9936647230
9936655775
9936662367
9936671400
9936682569
9936692030
9936703321
9936710340
9936718763
9936727125
9936732130
9936739393
9936745802
9936752821
9936759840
9936766065
9936773328
9936781141
9936788953
9936795118
9936802930
9936809034
9936814405
9936821912
9936829114
9936836011
9936843274
9936849683
9936859022
9936864087
9936873975
9936879163
9936887220
9936894605
9936902234
9936908399
9936917188
9936923169
9936931958
9936940442
9936946912
9936954785
9936962171
9936970410
9936979749
9936984876
9936994519
9937001782
9937008435
9937015271
9937024060
9937031140
9937040418
9937047498
9937053967
9937059460
9937068127
9937073621
9937081860
9937087231
9937096570
9937104871
9937111584
9937119336
9937124646
9937133191
9937137524
9937146741
9937152051
9937162243
9937169079
9937175610
9937181592
9937186963
9937192456
9937198193
9937204480
9937211377
9937215405
9937224011
9937231213
9937237133
9937243664
9937250683
9937257031
9937263134
9937270458
9937277233
9937283764
9937290661
9937296765
9937301647
9937308972
9937314160
9937321362
9937328014
9937334789
9937341930
9937347057
9937354443
9937361340
9937368359
9937375927
9937383007
9937389904
9937399731
9937405651
9937412121
9937417858
9937423290
9937429638
9937436413
9937441662
9937449413
9937454723
9937461254
9937468029
9937475292
9937480114
9937485668
9937491954
9937498974
9937505321
9937511119
9937517162
9937523693
9937529308
9937535106
9937551952
9937560253
9937566661
9937572216
9937578075
9937584545
9937590099
9937597789
9937604625
9937610362
9937617076
9937622203
9937629100
9937634532
9937643321
9937650218
9937655956
9937661449
9937667918
9937674144
9937681590
9937689036
9937695445
9937701243
9937707896
9937713573
9937720470
9937727428
9937733043
9937739390
9937746226
9937751353
9937759959
9937765941
9937773265
9937780955
9937787791
9937793528
9937800975
9937807139
9937814769
9937822093
9937827891
9937833445
9937841868
9937846141
9937852977
9937860789
9937867625
9937875010
9937880686
9937886668
9937894908
9937903452
9937910349
9937917368
9937923411
9937930125
9937938181
9937943003
9937951121
9937959238
9937964121
9937972056
9937977061
9937983713
9937990671
9937996226
9938003367
9938009470
9938016489
9938022593
9938029917
9938035776
9938042734
9938048838
9938054331
9938062571
9938068125
9938074289
9938079722
9938087717
9938093088
9938099131
9938107676
9938114206
9938120432
9938127451
9938133738
9938139048
9938147043
9938153208
9938159372
9938165109
9938171274
9938178293
9938184458
9938190988
9938197275
9938205332
9938212473
9938218942
9938225412
9938232736
9938239633
9938244455
9938251230
9938258310
9938264352
9938271310
9938277719
9938283639
9938291330
9938297189
9938304147
9938312753
9938320199
9938326059
9938333444
9938339181
9938348703
9938354745
9938362130
9938370004
9938375497
9938384164
9938391427
9938397714
9938405038
9938413339
9938420724
9938427499
9938433969
9938442391
9938449411
9938456979
9938466195
9938473397
9938480111
9938489816
9938496163
9938504281
9938511849
9938517526
9938526193
9938530709
9938540475
9938547799
9938554391
9938561349
9938571664
9938579110
9938588692
9938598641
9938606698
9938615121
9938623360
9938632088
9938641244
9938650155
9938657967
9938663155
9938670296
9938677254
9938684334
9938691597
9938697030
9938705880
9938711373
9938718697
9938725899
9938733345
9938738900
9938746224
9938753365
9938760262
9938768013
9938773689
9938783089
9938788704
9938796456
9938803475
9938810738
9938817146
9938823128
9938829048
9938836861
9938843697
9938853340
9938859688
9938865547
9938872261
9938878853
9938885261
9938891975
9938899300
9938906257
9938911445
9938919868
9938925667
9938933174
9938937507
9938944771
9938951484
9938957771
9938963447
9938969673
9938975166
9938981392
9938987373
9938993477
9938999397
9939005622
9939012336
9939017036
9939025032
9939029731
9939037178
9939041816
9939049018
9939053657
9939061408
9939066291
9939073188
9939077888
9939083564
9939091010
9939096382
9939101753
9939108466
9939114326
9939118476
9939125739
9939130683
9939137519
9939142951
9939148750
9939154426
9939160834
9939164924
9939171882
9939179511
9939184394
9939190497
9939195441
9939202216
9939207038
9939215217
9939221503
9939228339
9939234199
9939240363
9939246345
9939252936
9939259894
9939268012
9939273993
9939279914
9939286567
9939292853
9939298407
9939303290
9939310614
9939315802
9939322943
9939327948
9939334235
9939341742
9939348395
9939354438
9939360297
9939367743
9939374091
9939380560
9939385993
9939393744
9939399237
9939407233
9939413458
9939420050
9939426154
9939432806
9939439032
9939445868
9939452094
9939458624
9939465033
9939472113
9939476813
9939484198
9939490546
9939497931
9939504462
9939510931
9939516241
9939523382
9939529547
9939536627
9939543097
9939549566
9939555975
9939562323
9939569891
9939575018
9939583014
9939587957
9939595892
9939600775
9939608221
9939615423
9939622198
9939629949
9939635015
9939640264
9939647344
9939653448
9939660528
9939666570
9939673162
9939680792
9939685674
9939693060
9939698431
9939705633
9939713323
9939719000
9939725530
9939732488
9939739324
9939743902
9939751897
9939757574
9939764959
9939772832
9939778020
9939783819
9939790472
9939796453
9939803289
9939812078
9939816839
9939823430
9939831914
9939839300
9939845037
9939853032
9939858648
9939865606
9939878423
9939884099
9939890630
9939897649
9939903691
9939909185
9939916143
9939923162
9939929326
9939934819
9939942876
9939948552
9939956121
9939963445
9939970098
9939976262
9939983220
9939989934
9939997197
9940001836
9940009465
9940013982
9940022099
9940028508
9940036382
9940043584
9940050847
9940055791
9940063786
9940070744
9940078496
9940085942
9940092045
9940098515
9940107121
9940113652
9940120915
9940127568
9940135624
9940142094
9940150090
9940156010
9940163884
9940172429
9940178227
9940186100
9940194828
9940200810
9940208744
9940214665
9940222050
9940230473
9940235356
9940244450
9940252934
9940261601
9940266178
9940276310
9940281010
9940290775
9940298710
9940306156
9940313480
9940320255
9940326603
9940336124
9940342045
9940347538
9940356754
