9805343611
9805348860
9805354353
9805359969
9805364363
9805369429
9805375227
9805381209
9805386336
9805391279
9805396040
9805401900
9805406355
9805412092
9805416792
9805421980
9805427412
9805432478
9805436018
9805440901
9805446028
9805450789
9805455977
9805460310
9805464827
9805468611
9805474348
9805480513
9805486067
9805491316
9805496382
9805503767
9805509626
9805516279
9805522444
9805530805
9805537336
9805545210
9805552290
9805557051
9805564436
9805571760
9805579328
9805587263
9805594282
9805600263
9805607404
9805614118
9805622480
9805631086
9805638349
9805644941
9805653364
9805659528
9805667829
9805674116
9805681562
9805688398
9805694745
9805702802
9805708051
9805718366
9805725324
9805731977
9805741132
9805746991
9805755842
9805763410
9805770856
9805778974
9805785016
9805793012
9805798871
9805807050
9805814069
9805821454
9805829633
9805837750
9805845075
9805850934
9805861127
9805868695
9805874677
9805883283
9805889203
9805899152
9805905621
9805912824
9805921735
9805929059
9805937665
9805945172
9805952435
9805956708
9805967755
9805974530
9805982953
9805991131
9805998700
9806005292
9806012433
9806019574
9806028363
9806035931
9806045147
9806052166
9806059796
9806067120
9806073040
9806081890
9806089703
9806096478
9806104901
9806110699
9806120220
9806128033
9806135723
9806143658
9806149945
9806158306
9806164410
9806173443
9806180523
9806187786
9806195294
9806202740
9806210491
9806218609
9806225506
9806230511
9806238384
9806247906
9806253643
9806262310
9806267986
9806275799
9806281597
9806289837
9806299297
9806306255
9806312969
9806320110
9806328289
9806336040
9806342937
9806350261
9806356914
9806365703
9806373027
9806380657
9806385967
9806393962
9806402019
9806410076
9806418071
9806425395
9806434062
9806441692
9806448528
9806455608
9806462322
9806471355
9806477092
9806485454
9806493816
9806499065
9806509074
9806517009
9806522563
9806530620
9806537700
9806544109
9806552837
9806559856
9806568217
9806575114
9806582561
9806588847
9806597148
9806604594
9806611979
9806622844
9806630473
9806638102
9806644999
9806652202
9806659160
9806667094
9806676371
9806684001
9806691569
9806697306
9806706523
9806714579
9806720378
9806730815
9806736918
9806744303
9806752177
9806759684
9806766154
9806774638
9806781779
9806792643
9806800028
9806808451
9806815897
9806822794
9806831950
9806840495
9806848368
9806856058
9806864420
9806872904
9806879923
9806887614
9806895670
9806903361
9806911295
9806918802
9806927530
9806933878
9806942484
9806951151
9806959086
9806966959
9806974772
9806982401
9806992899
9807000162
9807009806
9807015116
9807023844
9807030619
9807041300
9807048685
9807054605
9807064859
9807072244
9807079935
9807085977
9807095071
9807100015
9807109354
9807120340
9807127176
9807135965
9807141763
9807150430
9807156778
9807166727
9807175149
9807185098
9807192178
9807200540
9807210061
9807217691
9807225931
9807232889
9807242776
9807248636
9807258096
9807265481
9807272256
9807280130
9807288247
9807295449
9807303140
9807310281
9807316751
9807324624
9807331338
9807338113
9807345620
9807352456
9807360696
9807368508
9807375222
9807384499
9807393227
9807401406
9807409768
9807416543
9807424416
9807432351
9807439858
9807448891
9807457314
9807464760
9807471596
9807480019
9807487099
9807496560
9807505044
9807513222
9807522011
9807528969
9807537514
9807545022
9807553261
9807560891
9807569680
9807576760
9807583901
9807591347
9807601845
9807607888
9807616005
9807622719
9807632485
9807642006
9807649391
9807659645
9807667336
9807673927
9807681801
9807685768
9807693459
9807701576
9807707375
9807715675
9807721840
9807728004
9807733681
9807740456
9807749000
9807753944
9807762367
9807769508
9807776344
9807781898
9807788856
9807795265
9807803016
9807809425
9807816627
9807823280
9807829200
9807840431
9807851295
9807856727
9807866920
9807875160
9807882972
9807889564
9807897682
9807903968
9807909400
9807917457
9807922889
9807930885
9807937599
9807943275
9807948707
9807956336
9807962379
9807969215
9807976356
9807982704
9807987342
9807995094
9807999671
9808007179
9808014564
9808021033
9808026771
9808033363
9808040748
9808045997
9808055213
9808059547
9808066932
9808071876
9808080054
9808084754
9808092689
9808101233
9808110694
9808118628
9808123938
9808129737
9808138160
9808144690
9808152503
9808159278
9808167884
9808174353
9808182593
9808189307
9808196387
9808202185
9808210547
9808219641
9808226416
9808234778
9808241187
9808247168
9808256507
9808262244
9808269690
9808277503
9808285437
9808292883
9808299475
9808307288
9808313696
9808321631
9808326208
9808335425
9808340063
9808350256
9808357642
9808364050
9808370520
9808377722
9808386145
9808393225
9808400488
9808408545
9808416906
9808423559
9808430151
9808438879
9808445288
9808452673
9808458532
9808466894
9808472998
9808483129
9808489294
9808497351
9808504980
9808511877
9808519750
9808526647
9808534521
9808540991
9808550451
9808559728
9808566259
9808574804
9808581274
9808594213
9808600256
9808609777
9808616186
9808624364
9808631994
9808639013
9808646825
9808654089
9808661718
9808669958
9808675817
9808681188
9808690343
9808698583
9808704442
9808713292
9808719030
9808726354
9808733495
9808740087
9808748143
9808754430
9808762426
9808769139
9808778783
9808785253
9808792089
9808800817
9808807653
9808813939
9808821019
9808830358
9808838414
9808844884
9808853063
9808861424
9808868016
9808874120
9808882787
9808888768
9808897191
9808903172
9808912022
9808919652
9808926732
9808934361
9808941319
9808949498
9808956578
9808964268
9808971898
9808977818
9808982274
9808992650
9808997288
9809008397
9809013463
9809023533
9809028599
9809037449
9809043675
9809051304
9809057225
9809063877
9809070469
9809078343
9809082066
9809090550
9809094273
9809102940
9809109410
9809115635
9809122471
9809128758
9809134800
9809140904
9809146519
9809152561
9809158421
9809164524
9809173557
9809178501
9809184788
9809189976
9809197056
9809204258
9809208836
9809215122
9809222446
9809228672
9809233311
9809239536
9809246433
9809252781
9809260898
9809269016
9809275852
9809281833
9809288120
9809294651
9809301487
9809307590
9809316135
9809321750
9809327671
9809333347
9809340305
9809345005
9809350986
9809357151
9809362461
9809369236
9809374729
9809379306
9809386020
9809391696
9809397434
9809403720
9809409275
9809415073
9809420688
9809426303
9809431980
9809439060
9809443576
9809450290
9809456272
9809462192
9809466831
9809473422
9809478061
9809485324
9809491733
9809497653
9809503818
9809509616
9809516635
9809522617
9809528720
9809535617
9809541110
9809547519
9809553378
9809558688
9809565402
9809572543
9809578342
9809585055
9809590976
9809596469
9809602328
9809610141
9809615024
9809622714
9809627597
9809636508
9809641757
9809649508
9809655001
9809661166
9809666598
9809674044
9809679782
9809688266
9809692050
9809700412
9809707492
9809714022
9809720858
9809727450
9809735690
9809742526
9809748629
9809755587
9809761813
9809767245
9809774264
9809779757
9809786959
9809792391
9809799349
9809807345
9809812655
9809818026
9809826693
9809833651
9809840182
9809847933
9809855440
9809862459
9809869234
9809875765
9809883089
9809892855
9809899325
9809906466
9809912996
9809919466
9809925814
9809933931
9809940950
9809946016
9809953035
9809959993
9809965670
9809972628
9809978243
9809985506
9809992037
9809996920
9810003939
9810010958
9810016756
9810023714
9810030794
9810036409
9810044405
9810049654
9810056978
9810062532
9810069856
9810075411
9810083345
9810090242
9810096712
9810102876
9810110506
9810117220
9810123811
9810127840
9810137666
9810144258
9810150606
9810156343
9810162813
9810169710
9810176057
9810181795
9810188264
9810195833
9810200593
9810207673
9810212068
9810218416
9810224702
9810231233
9810236604
9810243806
9810249177
9810256990
9810260591
9810270234
9810277375
9810283418
9810291902
9810298677
9810303987
9810310395
9810316255
9810321443
9810328706
9810334565
9810341828
9810345918
9810353913
9810359773
9810366242
9810373078
9810380219
9810389314
9810398164
9810405976
9810413117
9810419831
9810427094
9810433686
9810439057
9810447419
9810453400
9810460847
9810467377
9810474702
9810483491
9810491181
9810498505
9810510590
9810514924
9810525788
9810533905
9810540924
9810547028
9810554596
9810562531
9810567292
9810575348
9810580109
9810587616
9810592499
9810599457
9810606476
9810613068
9810618500
9810626190
9810631623
9810639313
9810644806
9810652191
9810658112
9810666779
9810674042
9810681854
9810686371
9810695465
9810702728
9810710114
9810716400
9810724213
9810728485
9810736908
9810742950
9810749603
9810753387
9810761627
9810768219
9810774261
9810777984
9810786285
9810793121
9810799225
9810803619
9810811126
9810820404
9810829132
9810839142
9810844940
9810852386
9810856048
9810863861
9810869415
9810877288
9810881195
9810888092
9810894622
9810900665
9810906463
9810911041
9810918731
9810925140
9810930145
9810936309
9810942230
9810946929
9810954131
9810959564
9810967559
9810973968
9810980376
9810986541
9810993499
9810999908
9811007598
9811013518
9811017059
9811025298
9811031585
9811037322
9811042998
9811049651
9811056060
9811060882
9811068999
9811074676
9811080474
9811086516
9811092925
9811099212
9811105803
9811112578
9811117827
9811124846
9811131865
9811138701
9811146514
9811153167
9811158965
9811165496
9811171111
9811178008
9811183074
9811190764
9811195952
9811202605
9811207488
9811216277
9811222502
9811228606
9811234709
9811241362
9811246855
9811253630
9811259245
9811266753
9811273589
9811278899
9811286406
9811291899
9811299773
9811305754
9811311552
9811317473
9811323210
9811329008
9811334746
9811342253
9811346586
9811353422
9811359587
9811365141
9811372282
9811377348
9811384611
9811390288
9811395964
9811401579
9811407805
9811413908
9811419828
9811425383
9811432585
9811438688
9811444181
9811448759
9811455839
9811461027
9811467863
9811472990
9811480558
9811487394
9811493498
9811497770
9811504362
9811510588
9811516691
9811523344
9811529508
9811535734
9811541960
9811548002
9811554228
9811560270
9811567045
9811575040
9811579862
9811586942
9811592008
9811598600
9811604337
9811610258
9811618070
9811623868
9811629118
9811635160
9811641202
9811647611
9811654691
9811660062
9811668302
9811671903
9811680265
9811687894
9811692777
9811700712
9811708341
9811715238
9811727079
9811732816
9811740384
9811746549
9811754789
9811764554
9811770719
9811777127
9811784391
9811794522
9811804410
9811812406
9811818997
9811825406
9811833768
9811841580
9811847867
9811853543
9811861051
9811869290
9811876126
9811883206
9811889432
9811896207
9811903226
9811910855
9811917203
9811923001
9811928311
9811936978
9811944363
9811950894
9811956753
9811962857
9811968594
9811974698
9811980557
9811986722
9811992459
9811998562
9812005215
9812012173
9812018948
9812024014
9812031033
9812036343
9812044339
9812050625
9812057095
9812063748
9812069241
9812074429
9812082913
9812089566
9812095730
9812102139
9812108731
9812118130
9812123623
9812130398
9812136135
9812141750
9812148403
9812152859
9812160183
9812165554
9812172085
9812177151
9812184719
9812189785
9812197170
9812204494
9812210598
9812215847
9812221950
9812229458
9812234402
9812243496
9812251980
9812259731
9812266872
9812274502
9812282192
9812289699
9812298427
9812304592
9812313442
9812321132
9812329067
9812335415
9812342434
9812351467
9812357265
9812367824
9812378078
9812387050
9812392543
9812400112
9812407192
9812412502
9812419155
9812426357
9812433132
9812438503
9812445644
9812452052
9812459010
9812465480
9812471156
9812479152
9812482936
9812491359
9812497829
9812502772
9812510829
9812515956
9812522975
9812531581
9812535853
9812544948
9812551967
9812558925
9812564967
9812572841
9812580226
9812587977
9812594142
9812601710
9812607936
9812615870
9812622035
9812629115
9812634852
9812642726
9812648524
9812656092
9812663356
9812670558
9812678065
9812683558
9812690821
9812699061
9812704554
9812708766
9812719142
9812726954
9812732752
9812739100
9812747889
9812755213
9812762904
9812770289
9812777735
9812784205
9812792567
9812799342
9812807093
9812814967
9812825892
9812837183
9812846522
9812854334
9812863978
9812874170
9812883021
9812890223
9812896875
9812903956
9812910669
9812917139
9812924280
9812931299
9812937769
9812944971
9812952539
9812958460
9812964991
9812972071
9812978845
9812985987
9812993738
9813001245
9813004541
9813015405
9813020044
9813030725
9813037439
9813046533
9813058801
9813070276
9813079187
9813087366
9813093164
9813100732
9813108789
9813117761
9813125574
9813132593
9813137842
9813146326
9813151758
9813159082
9813167200
9813174157
9813181848
9813188440
9813196130
9813202539
9813208032
9813217187
9813223779
9813231714
9813237634
9813245446
9813251428
9813257592
9813265405
9813271691
9813279321
9813286279
9813291528
9813299645
9813308007
9813314843
9813320519
9813328576
9813336389
9813343224
9813350610
9813357507
9813364220
9813370446
9813377221
9813383202
9813389550
9813397362
9813404382
9813410424
9813415246
9813423119
9813428368
9813435326
9813440819
9813448571
9813453698
9813460290
9813465355
9813472985
9813478783
9813484520
9813490746
9813497094
9813503380
9813509484
9813513085
9813521141
9813527062
9813533165
9813540184
9813546349
9813550866
9813558190
9813561913
9813570397
9813577782
9813584496
9813592308
9813597496
9813604149
9813609032
9813616661
9813619774
9813627403
9813633385
9813639000
9813644066
9813649986
9813656944
9813661400
9813668175
9813675743
9813681602
9813687706
9813693382
9813700218
9813704979
9813712791
9813722679
9813727684
9813735557
9813740867
9813747764
9813750999
9813758385
9813763939
9813770592
9813776695
9813782310
9813788780
9813794578
9813799766
9813805687
9813813316
9813818199
9813825462
9813830528
9813837852
9813843834
9813849815
9813856224
9813862205
9813867759
9813873741
9813880027
9813885887
9813892295
9813899192
9813905418
9813910301
9813916099
9813922508
9813929405
9813934470
9813940879
9813946128
9813954612
9813959983
9813968650
9813972434
9813980003
9813986472
9813992820
9814000632
9814006980
9814012962
9814019065
9814025962
9814030967
9814037498
9814044395
9814051963
9814057456
9814064780
9814070884
9814076133
9814081565
9814089682
9814097068
9814103415
9814107261
9814114951
9814121360
9814127707
9814134116
9814141623
9814149863
9814155051
9814162009
9814165915
9814175498
9814180564
9814186972
9814195090
9814199851
9814207236
9814213889
9814219260
9814224570
9814233237
9814241049
9814247092
9814252646
9814258933
9814265158
9814272543
9814279807
9814286093
9814294455
9814307638
9814311301
9814321738
9814325827
9814335348
9814340719
9814348715
9814355185
9814361593
9814366110
9814374106
9814380209
9814386740
9814394003
9814400412
9814406820
9814413778
9814419821
9814424582
9814432638
9814439657
9814445883
9814451315
9814459433
9814464987
9814472494
9814477987
9814485617
9814493185
9814499288
9814506368
9814511251
9814519003
9814525900
9814532186
9814539266
9814546774
9814552633
9814559530
9814567098
9814573751
9814579733
9814586385
9814594503
9814601949
9814607626
9814615072
9814621114
9814629110
9814635152
9814641866
9814649434
9814655904
9814663411
9814670003
9814676046
9814683980
9814690023
9814696859
9814705159
9814712606
9814719136
9814726949
9814732686
9814740743
9814748372
9814756856
9814763204
9814771382
9814777120
9814785054
9814792867
9814800557
9814806294
9814813924
9814821614
9814826558
9814836995
9814842549
9814850606
9814858113
9814867146
9814872884
9814883992
9814892842
9814906697
9814915181
9814923665
9814929951
9814937825
9814942341
9814952962
9814957966
9814966755
9814974202
9814982502
9814987690
9814998982
9815003926
9815013569
9815021809
9815056233
9815063130
9815071797
9815077961
9815083821
9815089802
9815094929
9815101887
9815107136
9815115132
9815121418
9815127461
9815134419
9815140461
9815146565
9815152729
9815158466
9815164692
9815170979
9815177204
9815183979
9815190876
9815197041
9815201740
9815209431
9815214741
9815222370
9815228779
9815236164
9815241169
9815247761
9815252888
9815260700
9815264545
9815272297
9815281025
9815287250
9815291645
9815297626
9815304645
9815310138
9815315204
9815321003
9815328083
9815332355
9815338886
9815344928
9815350544
9815355243
9815362262
9815367145
9815373981
9815380817
9815386310
9815391437
9815397418
9815403156
9815407855
9815414630
9815420917
9815426410
9815432208
9815438129
9815444171
9815449603
9815456256
9815463458
9815468646
9815473529
9815478839
9815484637
9815490924
9815497333
9815503131
9815510394
9815515826
9815521930
9815527118
9815534137
9815541339
9815546954
9815552569
9815558734
9815564349
9815570453
9815578082
9815587115
9815594561
9815601642
9815607928
9815613116
9815620562
9815626117
9815634600
9815641070
9815647052
9815653582
9815659564
9815668353
9815676043
9815681719
9815688189
9815695635
9815699908
9815708270
9815715106
9815721392
9815728961
9815735369
9815740801
9815747271
9815756487
9815763506
9815769671
9815776934
9815782915
9815789996
9815796160
9815801653
9815809588
9815815142
9815822222
9815827654
9815835161
9815841692
9815848406
9815855364
9815861651
9815866045
9815873736
9815881060
9815887407
9815893145
9815899675
9815905535
9815912066
9815919207
9815925737
9815932085
9815938494
9815945269
9815952166
9815958086
9815965105
9815971453
9815977129
9815985552
9815991411
9815998491
9816002886
9816010210
9816017229
9816022112
9816030168
9816037065
9816042131
9816049760
9816054765
9816060014
9816069353
9816075517
9816081987
9816088640
9816095293
9816101823
9816107255
9816115739
9816122026
9816129106
9816135881
9816142290
9816146013
9816154313
9816158037
9816167131
9816175309
9816180436
9816188127
9816193864
9816201921
9816209733
9816217729
9816226762
9816234391
9816242387
9816248979
9816255326
9816263749
9816269548
9816276444
9816282060
9816290910
9816294572
9816303300
9816309953
9816316483
9816321305
9816329118
9816336381
9816343461
9816347855
9816356828
9816364030
9816371232
9816375687
9816385697
9816393571
9816401078
9816407242
9816414384
9816420060
9816427140
9816431351
9816440934
9816449418
9816454850
9816462235
9816469437
9816476334
9816483353
9816489396
9816497635
9816502762
9816512406
9816519730
9816527542
9816532242
9816541153
9816547562
9816555069
9816561661
9816569962
9816576370
9816584854
9816591202
9816598099
9816606400
9816612747
9816620682
9816628555
9816634476
9816642654
9816648514
9816656509
9816663956
9816671158
9816677200
9816685135
9816692764
9816700516
9816706375
9816714187
9816721817
9816726394
9816736099
9816744461
9816751724
9816759475
9816766128
9816772842
9816777420
9816785232
9816790725
9816797866
9816804092
9816811294
9816815872
9816823257
9816827835
9816835281
9816842117
9816847854
9816855178
9816861221
9816867080
9816873123
9816878921
9816884841
9816891982
9816901992
9816909194
9816914993
9816924270
9816930862
9816937576
9816944534
9816952224
9816957168
9816963271
9816970351
9816974563
9816980605
9816986526
9816993056
9816999160
9817005508
9817010329
9817016189
9817020827
9817027785
9817033584
9817040603
9817044753
9817051833
9817058303
9817064040
9817069961
9817076430
9817081557
9817087661
9817092604
9817098769
9817104811
9817109694
9817116408
9817123244
9817128981
9817134475
9817140273
9817146498
9817152297
9817157790
9817163588
9817171157
9817175429
9817182021
9817188124
9817193739
9817200148
9817206557
9817211562
9817218337
9817224867
9817231032
9817237502
9817243910
9817250685
9817255873
9817263014
9817267897
9817275282
9817280775
9817286635
9817293715
9817299818
9817307692
9817312208
9817318739
9817325819
9817332472
9817342055
9817348829
9817355604
9817363295
9817370375
9817375929
9817384413
9817389357
9817396864
9817401869
9817409193
9817416212
9817422560
9817429396
9817435377
9817440748
9817447645
9817453260
9817461866
9817465406
9817473768
9817480970
9817487806
9817494886
9817502516
9817513014
9817519361
9817526563
9817535291
9817542310
9817548048
9817554456
9817561658
9817566480
9817574232
9817579053
9817586011
9817592420
9817598585
9817605543
9817613233
9817618787
9817625684
9817631177
9817638135
9817645826
9817651197
9817659559
9817664441
9817669812
9817678357
9817682142
9817690625
9817697217
9817703382
9817709912
9817716443
9817722730
9817729322
9817736035
9817742505
9817747876
9817756848
9817763135
9817769544
9817777112
9817781873
9817788342
9817795239
9817801892
9817807324
9817813977
9817820874
9817826978
9817832532
9817840710
9817846204
9817852979
9817858838
9817866650
9817872815
9817879773
9817886914
9817893811
9817899487
9817906384
9817914319
9817919629
9817926709
9817933545
9817940747
9817945996
9817954785
9817961438
9817969311
9817975354
9817983899
9817990857
9817996106
9818003186
9818010449
9818017468
9818025402
9818029492
9818039440
9818043957
9818053845
9818058544
9818068981
9818078930
9818086865
9818093884
9818101513
9818108898
9818114636
9818122082
9818131847
9818139599
9818148144
9818155590
9818164989
9818176098
9818180431
9818189831
9818196911
9818207592
9818214916
9818220287
9818229015
9818234569
9818242809
9818250988
9818256725
9818264110
9818271801
9818277782
9818285717
9818291698
9818299572
9818305614
9818313121
9818318981
9818327709
9818335338
9818343273
9818351024
9818356822
9818363719
9818372631
9818378978
9818386791
9818393138
9818402232
9818408824
9818417003
9818423351
9818430125
9818438304
9818445262
9818450999
9818459788
9818464976
9818472850
9818477672
9818484264
9818490977
9818497691
9818502818
9818509105
9818515880
9818522105
9818527293
9818534373
9818539561
9818547801
9818551646
9818559886
9818565867
9818572093
9818578685
9818584727
9818591868
9818597972
9818604136
9818608775
9818612376
9818622996
9818628489
9818634715
9818640696
9818646739
9818653086
9818659434
9818665354
9818670725
9818678172
9818684519
9818690501
9818696238
9818701731
9818707591
9818714121
9818720896
9818725718
9818731821
9818737620
9818743174
9818748362
9818754038
9818761485
9818766306
9818772410
9818777659
9818786204
9818793101
9818799021
9818806040
9818813791
9818821726
9818825449
9818833689
9818839487
9818846750
9818853281
9818859141
9818864512
9818870249
9818877329
9818881479
9818888193
9818895029
9818901865
9818906748
9818913889
9818920481
9818926523
9818930124
9818938425
9818945017
9818951120
9818957773
9818962168
9818969858
9818974314
9818980722
9818986948
9818995004
9818998728
9819006540
9819012155
9819019663
9819024728
9819030893
9819038522
9819044931
9819052316
9819057138
9819063669
9819070138
9819077890
9819083322
9819089792
9819096750
9819102243
9819109323
9819115915
9819121408
9819127756
9819134836
9819141549
9819146921
9819154733
9819160226
9819167672
9819173166
9819180429
9819185739
9819194101
9819197824
9819206308
9819212838
9819219186
9819222909
9819233285
9819241036
9819245980
9819253305
9819259896
9819265756
9819271188
9819279550
9819285043
9819292306
9819299264
9819305917
9819310372
9819317574
9819325265
9819330331
9819338082
9819344979
9819350777
9819356210
9819364388
9819367989
9819375924
9819389718
9819396249
9819403329
9819410409
9819417611
9819425240
9819430794
9819438668
9819446541
9819453499
9819458382
9819465706
9819470711
9819477669
9819484871
9819492073
9819497322
9819505684
9819509407
9819516915
9819522591
9819530892
9819537728
9819543953
9819547798
9819555367
9819563057
9819567879
9819575508
9819581917
9819587044
9819594246
9819600838
9819607246
9819614204
9819619026
9819626839
9819633858
9819640572
9819647591
9819654488
9819661751
9819667732
9819674751
9819682320
9819689339
9819695625
9819702644
9819709114
9819716255
9819722236
9819729439
9819734688
9819743294
9819750984
9819756294
9819763069
9819770027
9819776741
9819783821
9819791084
9819798713
9819807014
9819812690
9819820930
9819826911
9819834297
9819841987
9819849433
9819857124
9819862678
9819872383
9819876960
9819886970
9819894233
9819901435
9819907783
9819915473
9819922248
9819929878
9819937629
9819945380
9819952460
9819960334
9819966437
9819974189
9819982368
9819989936
9819996955
9820004462
9820010505
9820017707
9820023566
9820031257
9820039435
9820047675
9820054450
9820062690
9820069342
9820079596
9820086127
9820095282
9820103339
9820111762
9820121588
9820126837
9820137580
9820142340
9820151190
9820160773
9820166876
9820172309
9820178534
9820182807
9820190497
9820196356
9820202521
9820208868
9820214972
9820221869
9820226508
9820232855
9820238959
9820245306
9820251410
9820257696
9820264593
9820270880
9820275519
9820283026
9820287848
9820295721
9820300482
9820308356
9820313421
9820320379
9820325445
9820331671
9820338263
9820343756
9820351812
9820357855
9820363653
9820369085
9820374151
9820381781
9820388006
9820394049
9820401068
9820407232
9820413214
9820418951
9820424627
9820430303
9820436102
9820441900
9820448919
9820453680
9820460577
9820465460
9820471624
9820479070
9820485052
9820490362
9820497503
9820502874
9820508611
9820514410
9820520208
9820526128
9820532476
9820538274
9820544439
9820550054
9820554693
9820561101
9820566045
9820573064
9820580511
9820586126
9820592107
9820597356
9820604009
9820608953
9820615850
9820623845
9820630498
9820634832
9820641118
9820647832
9820653325
9820659917
9820671636
9820679448
9820686895
9820692632
9820699834
9820706914
9820712712
9820719548
9820727910
9820734014
9820739202
9820745244
9820751531
9820758061
9820765874
9820770696
9820777898
9820784917
9820790532
9820797429
9820803044
9820810002
9820817571
9820822881
9820829839
9820835149
9820841374
9820849004
9820855473
9820859441
9820867253
9820872624
9820880192
9820885625
9820892949
9820899113
9820905522
9820914006
9820920353
9820926701
9820933049
9820939518
9820945744
9820950993
9820957402
9820964909
9820971440
9820978886
9820983708
9820990971
9820997929
9821004399
9821009770
9821016728
9821023747
9821029911
9821035465
9821042179
9821049259
9821055424
9821060917
9821068058
9821073429
9821081425
9821086918
9821094120
9821099613
9821106876
9821113224
9821121708
9821127934
9821134342
9821140446
9821146793
9821153629
9821160221
9821166996
9821173954
9821180424
9821185184
9821192814
9821198063
9821205265
9821213077
9821217899
9821225956
9821232975
9821236942
9821245243
9821251835
9821258915
9821265751
9821272831
9821280155
9821287235
9821294437
9821301090
9821309452
9821317752
9821330814
9821336429
9821343448
9821350406
9821357852
9821364383
9821371036
9821379154
9821383792
9821390445
9821396732
9821403323
9821410159
9821415714
9821422733
9821429874
9821435794
9821442813
9821450442
9821456668
9821461978
9821470584
9821476077
9821483584
9821491763
9821498294
9821503543
9821511844
9821517215
9821525210
9821532962
9821541263
9821547305
9821554385
9821560244
9821568423
9821574282
9821581302
9821587771
9821596194
9821601992
9821610110
9821616824
9821623599
9821629336
9821638674
9821647097
9821652957
9821661318
9821668704
9821674563
9821683413
9821689211
9821697146
9821705813
9821712893
9821720889
9821728762
9821734621
9821742861
9821750918
9821757632
9821765505
9821770083
9821779543
9821787600
9821795351
9821800051
9821809450
9821814028
9821823549
9821829958
9821838564
9821845217
9821852968
9821859316
9821866762
9821872561
9821880495
9821886538
9821893618
9821897158
9821904726
9821912538
9821917055
9821924868
9821929262
9821937380
9821942568
9821949465
9821955263
9821961366
9821964723
9821974489
9821985841
9821993349
9821998476
9822006349
9822013796
9822020631
9822025636
9822036562
9822042726
9822048830
9822054872
9822060426
9822066530
9822072694
9822078920
9822083803
9822090578
9822095521
9822102601
9822108461
9822114198
9822120180
9822125795
9822132020
9822137697
9822143800
9822149598
9822154603
9822162843
9822168214
9822173097
9822180177
9822184999
9822192140
9822195619
9822204164
9822210755
9822216493
9822221131
9822228089
9822233583
9822239320
9822246034
9822250489
9822257325
9822263429
9822269593
9822274415
9822280763
9822286378
9822293153
9822300721
9822305238
9822312623
9822318848
9822324342
9822329224
9822337586
9822343812
9822349610
9822357056
9822362000
9822369080
9822374512
9822380311
9822388001
9822394959
9822400635
9822405884
9822413270
9822418458
9822425721
9822433106
9822439637
9822446412
9822452393
9822460328
9822465393
9822472962
9822479248
9822486573
9822490357
9822498413
9822504944
9822511109
9822517456
9822523926
9822532410
9822537842
9822544495
9822550476
9822558106
9822562683
9822571594
9822575806
9822585022
9822594727
9822601685
9822607361
9822613281
9822621582
9822627563
9822635681
9822639648
9822648071
9822655090
9822661560
9822665588
9822674011
9822681091
9822687500
9822692016
9822699524
9822703247
9822711975
9822718872
9822725952
9822732910
9822739441
9822746154
9822753174
9822759277
9822764038
9822770874
9822777893
9822784301
9822791320
9822797607
9822802978
9822810546
9822815856
9822822265
9822828247
9822835876
9822841125
9822849059
9822855529
9822861938
9822869201
9822873962
9822881713
9822888061
9822893676
9822900268
9822908141
9822913085
9822920531
9822927306
9822936095
9822941466
9822947570
9822954589
9822960326
9822967406
9822974731
9822981200
9822988769
9822993041
9823000854
9823006591
9823015319
9823019652
9823027953
9823035094
9823041991
9823049987
9823055175
9823062194
9823069701
9823076476
9823082457
9823096434
9823104918
9823111754
9823119689
9823125609
9823133055
9823139159
9823147093
9823153136
9823161009
9823166930
9823174071
9823181822
9823187315
9823195372
9823205748
9823215758
9823222227
9823231749
9823237486
9823246214
9823254759
9823264708
9823272032
9823279173
9823287047
9823292357
9823299864
9823306822
9823314085
9823321165
9823327940
9823335020
9823340269
9823347960
9823356016
9823363157
9823369688
9823376829
9823384275
9823389524
9823397642
9823404844
9823411985
9823417967
9823427183
9823432981
9823437620
9823447813
9823452513
9823463072
9823467527
9823476804
9823485227
9823492857
9823497617
9823506651
9823512815
9823520139
9823525877
9823534177
9823540830
9823546690
9823551816
9823558897
9823564695
9823570737
9823576658
9823583555
9823590391
9823596494
9823602842
9823609006
9823614744
9823620969
9823628049
9823632688
9823639768
9823645871
9823651426
9823657590
9823664609
9823669248
9823675901
9823683103
9823691159
9823696225
9823703000
9823708249
9823715634
9823720883
9823728147
9823734677
9823740170
9823745358
9823753720
9823757443
9823765073
9823771542
9823777341
9823784238
9823789975
9823796323
9823800534
9823807736
9823813901
9823819516
9823824216
9823831113
9823837033
9823842404
9823848874
9823861325
9823866574
9823874631
9823882443
9823888363
9823896298
9823903683
9823909787
9823916073
9823921689
9823928463
9823933224
9823939389
9823944149
9823952816
9823958554
9823964352
9823970944
9823977780
9823984188
9823989437
9823996762
9824001828
9824009030
9824015560
9824021481
9824027584
9824033505
9824039913
9824045773
9824051815
9824058285
9824063900
9824070309
9824075924
9824082211
9824087826
9824095089
9824100887
9824105770
9824112423
9824117733
9824124996
9824130306
9824139095
9824146664
9824153072
9824159359
9824165890
9824171688
9824178219
9824185360
9824190487
9824199093
9824203914
9824211605
9824216427
9824223690
9824228512
9824236812
9824241939
9824249080
9824256099
9824261959
9824268795
9824274898
9824280269
9824288448
9824294979
9824301326
9824308040
9824314998
9824320857
9824326045
9824333370
9824339351
9824346858
9824353572
9824359737
9824366084
9824372188
9824379024
9824386104
9824391841
9824398494
9824404720
9824410091
9824417781
9824424556
9824431148
9824439326
9824448238
9824455440
9824459773
9824469295
9824473750
9824483333
9824491206
9824496821
9824500972
9824510737
9824518001
9824524409
9824530635
9824537166
9824542903
9824549250
9824556331
9824563288
9824570552
9824576960
9824583796
9824588679
9824595881
9824602778
9824609492
9824614375
9824621150
9824628169
9824634760
9824642024
9824648432
9824653803
9824661067
9824666438
9824674555
9824679926
9824687861
9824694575
9824701777
9824708979
9824714472
9824720454
9824728999
9824735712
9824742792
9824749445
9824756647
9824763361
9824770441
9824777155
9824784418
9824788813
9824798517
9824805475
9824812616
9824819208
9824824762
9824831598
9824840082
9824846186
9824852900
9824860590
9824868036
9824874201
9824881037
9824888727
9824895380
9824901361
9824908502
9824918268
9824925165
9824933344
9824939997
9824945856
9824955683
9824962335
9824970148
9824976495
9824984186
9824991815
9824998590
9825006281
9825014337
9825020197
9825028375
9825036310
9825042840
9825050470
9825055963
9825065118
9825069757
9825079217
9825086542
9825094354
9825098810
9825108575
9825115960
9825122857
9825129266
9825137933
9825145440
9825153924
9825161431
9825174005
9825182550
9825192681
9825200677
9825207025
9825214410
9825221795
9825228631
9825234918
9825241937
9825246575
9825252801
9825259087
9825265862
9825273065
9825279412
9825284661
9825290887
9825297540
9825304131
9825309380
9825315972
9825322198
9825330010
9825336297
9825342583
9825349419
9825355767
9825359368
9825367608
9825374505
9825380669
9825385979
9825391778
9825398308
9825404046
9825409966
9825414544
9825422051
9825428826
9825434441
9825440606
9825446221
9825450737
9825456597
9825461907
9825468987
9825475090
9825481011
9825488518
9825495476
9825501763
9825507866
9825513787
9825519524
9825525627
9825531792
9825536308
9825543450
9825550163
9825555718
9825561882
9825566582
9825573784
9825579094
9825584526
9825591484
9825597466
9825603203
9825609001
9825615288
9825620598
9825626335
9825632683
9825638115
9825645134
9825650261
9825656914
9825661674
9825668632
9825676689
9825681145
9825688591
9825693352
9825699516
9825704277
9825712150
9825718559
9825724601
9825732292
9825737114
9825744987
9825749931
9825758171
9825763664
9825771843
9825777336
9825784782
9825790153
9825798149
9825804191
9825810478
9825817375
9825823844
9825827812
9825835929
9825843009
9825849540
9825855827
9825863151
9825870292
9825876762
9825883476
9825890067
9825896537
9825903068
9825908866
9825915519
9825922233
9825929069
9825934562
9825941398
9825946952
9825953788
9825959647
9825967093
9825974174
9825979484
9825986625
9825992118
9825999381
9826005485
9826012381
9826018668
9826025504
9826032157
9826038688
9826043387
9826051383
9826058036
9826064627
9826071463
9826077872
9826083853
9826090201
9826096488
9826101248
9826109671
9826114554
9826121634
9826128531
9826135062
9826142081
9826147086
9826154105
9826160574
9826167838
9826175223
9826178946
9826187125
9826193472
9826199820
9826206961
9826214957
9826221609
9826227286
9826234610
9826239798
9826247061
9826253958
9826260611
9826267325
9826272268
9826279715
9826286612
9826292776
9826298208
9826306326
9826312552
9826320791
9826328543
9826333975
9826341543
9826348257
9826354300
9826363516
9826371817
9826379568
9826382254
9826393240
9826400503
9826407461
9826415823
9826421194
9826429800
9826434561
9826442800
9826447561
9826454153
9826461111
9826467458
9826475332
9826482290
9826487478
9826496206
9826501455
9826509084
9826514394
9826523122
9826528554
9826537405
9826542715
9826550527
9826556081
9826563589
9826570791
9826578298
9826583974
9826592824
9826598379
9826605703
9826612844
9826619619
9826626760
9826634206
9826642812
9826649282
9826657705
9826663686
9826671315
9826678090
9826685842
9826692311
9826700307
9826709157
9826716970
9826723866
9826729604
9826738332
9826744191
9826752065
9826759816
9826764333
9826774526
9826779103
9826788930
9826795522
9826803517
9826809926
9826817311
9826823842
9826832082
9826838612
9826846425
9826852833
9826861195
9826867360
9826874379
9826880726
9826889515
9826893788
9826903309
9826907521
9826916554
9826923085
9826928029
9826936573
9826941883
9826948597
9826953541
9826960438
9826966603
9826974049
9826981190
9826987294
9826992970
9826999378
9827005482
9827010853
9827018482
9827023609
9827031422
9827039295
9827046742
9827052601
9827059559
9827067249
9827074268
9827082569
9827088001
9827096851
9827102894
9827109058
9827115345
9827121632
9827127857
9827133350
9827140186
9827146595
9827152271
9827157032
9827163685
9827169178
9827177295
9827181263
9827188038
9827194568
9827200306
9827206531
9827210987
9827218128
9827223987
9827229358
9827234241
9827241626
9827246753
9827255176
9827260669
9827266101
9827273059
9827277820
9827284290
9827289173
9827296436
9827301746
9827309192
9827314868
9827320606
9827326404
9827332141
9827338245
9827344714
9827349902
9827355945
9827361621
9827368579
9827374133
9827380725
9827385242
9827392566
9827398791
9827404102
9827408862
9827416553
9827422534
9827428455
9827435718
9827442493
9827448535
9827453723
9827460315
9827465686
9827473804
9827480212
9827486377
9827493457
9827499926
9827504809
9827512011
9827519153
9827525744
9827534106
9827540088
9827546984
9827552356
9827559375
9827564746
9827572985
9827578967
9827585437
9827590930
9827598498
9827603930
9827611865
9827615588
9827627368
9827632311
9827641161
9827647387
9827657824
9827666125
9827672900
9827679919
9827687548
9827692370
9827699328
9827705737
9827712878
9827717760
9827724535
9827731493
9827738207
9827742968
9827750048
9827757006
9827762560
9827769518
9827775194
9827782274
9827788073
9827795275
9827802538
9827808092
9827814867
9827820482
9827827990
9827833971
9827841295
9827846666
9827853746
9827859117
9827867968
9827871752
9827880236
9827887438
9827892321
9827899950
9827906420
9827912767
9827919359
9827924852
9827933092
9827939806
9827944566
9827952928
9827957750
9827965563
9827972459
9827978990
9827983873
9827991747
9827997057
9828005052
9828010362
9828016222
9828023180
9828029527
9828035448
9828042589
9828048265
9828057603
9828061815
9828070909
9828075059
9828085191
9828089341
9828099046
9828103257
9828112413
9828120775
9828125718
9828132493
9828140001
9828147813
9828156053
9828163621
9828169358
9828175767
9828181626
9828190660
9828195909
9828206162
9828210618
9828221055
9828230332
9828235764
9828242967
9828250779
9828260789
9828266465
9828276658
9828283677
9828292527
9828299485
9828308762
9828315293
9828326829
9828334580
9828340562
9828347947
9828355027
9828362473
9828369675
9828376755
9828383835
9828391099
9828396348
9828404038
9828411240
9828418137
9828425400
9828433152
9828440171
9828447251
9828453293
9828460678
9828468369
9828476059
9828483811
9828491562
9828499253
9828506088
9828513779
9828519699
9828527329
9828532028
9828541855
9828549362
9828557114
9828561569
9828570480
9828576706
9828583481
9828589584
9828598495
9828604294
9828611496
9828617477
9828623703
9828629074
9828636276
9828642868
9828649155
9828653366
9828662094
9828669235
9828675583
9828681259
9828687668
9828693222
9828699691
9828708114
9828714706
9828720321
9828725204
9828733017
9828736557
9828744308
9828750534
9828757858
9828763961
9828770065
9828775985
9828781967
9828788619
9828795577
9828802108
9828807418
9828814010
9828819747
9828826156
9828832931
9828840072
9828845443
9828851791
9828857955
9828864242
9828869491
9828874313
9828881026
9828888717
9828894454
9828900375
9828906051
9828911849
9828917525
9828924056
9828931502
9828937362
9828944564
9828950667
9828956038
9828963851
9828969649
9828977401
9828984115
9828989852
9828996016
9829001876
9829007552
9829013289
9829019454
9829025863
9829032027
9829037154
9829045211
9829048629
9829056685
9829063094
9829069197
9829075179
9829081160
9829088118
9829094649
9829100081
9829106612
9829112105
9829119246
9829125228
9829129988
9829137740
9829144148
9829150557
9829157088
9829163619
9829170027
9829176619
9829183821
9829188643
9829196822
9829201643
9829208113
9829214705
9829221602
9829228560
9829234663
9829241682
9829247664
9829254683
9829260298
9829265730
9829274031
9829279402
9829286726
9829293013
9829300215
9829303938
9829312422
9829321577
9829328474
9829335127
9829339949
9829346479
9829353498
9829360762
9829366072
9829374494
9829378279
9829386518
9829393110
9829399641
9829406660
9829414839
9829421736
9829428632
9829434309
9829441450
9829447920
9829453413
9829461469
9829467085
9829473859
9829479231
9829486066
9829491499
9829499921
9829503767
9829512067
9829518232
9829525922
9829529890
9829539899
9829544965
9829552656
9829560224
9829567609
9829578962
9829586652
9829594098
9829599286
9829606061
9829612836
9829619306
9829625348
9829631879
9829638593
9829645307
9829652448
9829657331
9829664350
9829670819
9829678815
9829683576
9829691266
9829696698
9829704083
9829709455
9829715741
9829722760
9829729596
9829734967
9829743268
9829749371
9829755841
9829761884
9829767560
9829772931
9829781720
9829785870
9829794598
9829800458
9829808881
9829815839
9829823407
9829830182
9829837140
9829844403
9829849957
9829856000
9829864056
9829870160
9829878460
9829885785
9829893536
9829897686
9829907513
9829914471
9829921551
9829925763
9829934124
9829940594
9829949871
9829954510
9829964520
9829968975
9829979107
9829985516
9829992291
9829998944
9830008526
9830015606
9830022991
9830027081
9830036419
9830040936
9830050640
9830059551
9830065533
9830073345
9830081341
9830088360
9830096966
9830103496
9830110882
9830117473
9830127117
9830133526
9830141338
9830147808
9830154583
9830162823
9830169780
9830175823
9830185894
9830191570
9830199444
9830205181
9830214580
9830220562
9830228313
9830237590
9830247905
9830254924
9830264324
9830271404
9830279705
9830288860
9830296428
9830302837
9830310954
9830316570
9830322856
9830329692
9830335857
9830341167
9830348552
9830353862
9830360210
9830365337
9830372417
9830378337
9830385417
9830391704
9830398051
9830404704
9830410930
9830417949
9830423930
9830429851
9830435954
9830442790
9830447734
9830454936
9830461650
9830468242
9830473491
9830481242
9830486613
9830493022
9830498271
9830505656
9830510844
9830518534
9830524516
9830531047
9830537333
9830543498
9830550334
9830556498
9830562724
9830568339
9830574137
9830579814
9830585917
9830592265
9830598673
9830603556
9830610209
9830614909
9830621806
9830627238
9830632609
9830640421
9830645976
9830651286
9830657023
9830662455
9830667033
9830673808
9830681559
9830687357
9830692606
9830698588
9830704325
9830710856
9830716227
9830723917
9830730143
9830735331
9830741373
9830746988
9830753946
9830759684
9830765665
9830771158
9830777933
9830782694
9830789896
9830794779
9830802774
9830808817
9830814859
9830821207
9830828287
9830834208
9830840433
9830848368
9830856607
9830864420
9830870218
9830878946
9830886148
9830892740
9830897440
9830905069
9830909158
9830917398
9830923929
9830930338
9830934122
9830942911
9830949869
9830956339
9830962198
9830968668
9830975504
9830981973
9830988565
9830993631
9831001627
9831008768
9831015665
9831020975
9831027749
9831032571
9831040323
9831047220
9831053262
9831061319
9831067605
9831073892
9831080606
9831088357
9831093545
9831100869
9831108377
9831113870
9831120340
9831127664
9831133218
9831141336
9831148294
9831154702
9831160867
9831167520
9831172952
9831179360
9831185525
9831192056
9831199014
9831205544
9831212686
9831219766
9831226479
9831231606
9831238809
9831245156
9831251809
9831259682
9831264687
9831271889
9831278542
9831284768
9831290017
9831297402
9831304055
9831311867
9831317055
9831323220
9831330300
9831335122
9831342202
9831348977
9831356606
9831362587
9831368874
9831376381
9831381752
9831392189
9831399453
9831407753
9831415566
9831421975
9831429238
9831435402
9831441201
9831448464
9831457497
9831464943
9831471108
9831477333
9831483559
9831491493
9831498940
9831504921
9831510170
9831517983
9831524696
9831530678
9831538307
9831545570
9831552589
9831559303
9831564857
9831570412
9831576576
9831584022
9831589027
9831596718
9831600075
9831610390
9831617958
9831623634
9831631874
9831640724
9831648598
9831655983
9831663063
9831670875
9831677284
9831683204
9831694069
9831700355
9831707374
9831715248
9831724220
9831729713
9831739784
9831746681
9831754066
9831759986
9831768653
9831776893
9831782203
9831790809
9831798988
9831805091
9831813331
9831819068
9831827918
9831834449
9831843787
9831853614
9831860084
9831868568
9831875709
9831885657
9831894813
9831900794
9831910438
9831916358
9831925269
9831931617
9831938270
9831944251
9831952491
9831958533
9831964515
9831970801
9831975867
9831981971
9831989539
9831994788
9832002173
9832009192
9832014624
9832021949
9832029029
9832035681
9832041907
9832048072
9832055518
9832062537
9832069434
9832077551
9832083411
9832089453
9832098242
9832102698
9832111121
9832118506
9832126257
9832132666
9832137854
9832143225
9832147925
9832155127
9832161475
9832168433
9832175024
9832179358
9832186011
9832191443
9832196997
9832203650
9832211340
9832215185
9832223120
9832227820
9832233252
9832240515
9832247473
9832254614
9832259558
9832265173
9832270361
9832278112
9832284216
9832291540
9832295813
9832303259
9832309484
9832315588
9832320654
9832327185
9832333593
9832338964
9832345739
9832351965
9832356970
9832364721
9832370764
9832375891
9832384863
9832390661
9832396765
9832403295
9832411779
9832417883
9832423986
9832431371
9832437231
9832444006
9832450353
9832458105
9832464452
9832470373
9832478063
9832483129
9832490514
9832497716
9832503820
9832511205
9832516393
9832524389
9832530736
9832538854
9832546178
9832551122
9832559179
9832565465
9832572179
9832578405
9832585302
9832593786
9832598119
9832606542
9832610814
9832620824
9832625096
9832634496
9832643407
9832648595
9832656041
9832661351
9832668614
9832673741
9832681005
9832687169
9832694676
9832700047
9832708836
9832712560
9832721227
9832728185
9832734715
9832741368
9832747777
9832754124
9832760838
9832767613
9832774205
9832780797
9832787999
9832794469
9832799290
9832806187
9832813084
9832818699
9832825657
9832832066
9832839024
9832844578
9832851475
9832857213
9832864048
9832870091
9832875462
9832883336
9832888646
9832895909
9832902012
9832908970
9832915989
9832924717
9832931736
9832938389
9832944126
9832950291
9832958592
9832964085
9832970921
9832978794
9832985447
9832991001
9832998936
9833004246
9833011021
9833017063
9833025547
9833031529
9833038792
9833048191
9833055393
9833059605
9833068516
9833077000
9833084202
9833088474
9833097690
9833104526
9833111484
9833118137
9833125217
9833132236
9833137607
9833143528
9833151462
9833157932
9833165745
9833171665
9833179722
9833185703
9833193637
9833200107
9833208835
9833216098
9833224033
9833228611
9833238071
9833245334
9833256198
9833261081
9833270969
9833284091
9833289462
9833298251
9833304538
9833314426
9833320407
9833326816
9833335605
9833342685
9833347995
9833355685
9833361240
9833368747
9833376254
9833382785
9833390292
9833398593
9833406100
9833412326
9833419955
9833426608
9833432467
9833440036
9833448581
9833455295
9833461093
9833469821
9833475924
9833484469
9833492831
9833500277
9833506320
9833514560
9833520297
9833528720
9833536532
9833542575
9833550082
9833556735
9833563876
9833570834
9833577609
9833584384
9833590609
9833596652
9833602877
9833610079
9833614901
9833621920
9833628695
9833634493
9833641451
9833647372
9833654147
9833660250
9833665743
9833671847
9833678683
9833684542
9833691317
9833697481
9833702791
9833710177
9833715548
9833723116
9833726900
9833734408
9833739718
9833747103
9833752535
9833760531
9833767611
9833773653
9833779818
9833786104
9833792635
9833798983
9833804537
9833811129
9833818941
9833823946
9833831819
9833838777
9833843904
9833850069
9833856539
9833862093
9833867647
9833874666
9833880220
9833886141
9833891756
9833897127
9833903352
9833910249
9833920259
9833926241
9833932527
9833939180
9833944978
9833951814
9833959871
9833963289
9833971040
9833977388
9833983125
9833988313
9833994112
9834001008
9834006624
9834012910
9834019502
9834024629
9834030977
9834037324
9834042940
9834049898
9834054841
9834062959
9834069734
9834075837
9834081575
9834087739
9834093538
9834099458
9834106416
9834112947
9834118806
9834124848
9834131074
9834138154
9834144868
9834152680
9834158540
9834164033
9834171418
9834176850
9834184480
9834189851
9834197846
9834204438
9834210847
9834214631
9834222688
9834229707
9834236115
9834243195
9834249787
9834256135
9834262666
9834269013
9834275727
9834282868
9834289521
9834296723
9834303803
9834309174
9834315583
9834322236
9834329194
9834335175
9834343110
9834349640
9834354828
9834362580
9834369050
9834375885
9834382050
9834388642
9834397004
9834402375
9834409333
9834414582
9834421662
9834427704
9834434174
9834443695
9834448334
9834456208
9834460907
9834468781
9834473969
9834481354
9834488434
9834494782
9834501495
9834507782
9834516022
9834521454
9834529266
9834537384
9834544464
9834551971
9834558502
9834566071
9834573212
9834578827
9834585235
9834593048
9834599457
9834604706
9834612091
9834617645
9834625152
9834631439
9834638031
9834644806
9834651397
9834658233
9834664886
9834671661
9834678314
9834682953
9834692474
9834699554
9834704498
9834712860
9834717681
9834724823
9834731842
9834738494
9834743560
9834751800
9834757171
9834765289
9834771331
9834778167
9834785980
9834791473
9834799529
9834805938
9834813567
9834820525
9834825835
9834833099
9834840850
9834847564
9834853179
9834862273
9834867644
9834876495
9834882415
9834888824
9834896514
9834903655
9834909331
9834916228
9834923369
9834931609
9834937407
9834945342
9834953154
9834960418
9834966399
9834976287
9834982085
9834990630
9834996428
9835004546
9835012542
9835019072
9835026885
9835032744
9835041350
9835049590
9835055388
9835061919
9835070769
9835075591
9835085173
9835092253
9835099516
9835105986
9835115263
9835121794
9835129240
9835137785
9835144194
9835150053
9835160918
9835168059
9835176359
9835183012
9835191191
9835198027
9835205778
9835213225
9835222441
9835232390
9835244108
9835246794
9835260222
9835266813
9835275663
9835286833
9835292509
9835301603
9835307219
9835314482
9835321257
9835328398
9835335600
9835342253
9835347624
9835354399
9835359281
9835366239
9835372953
9835379606
9835385954
9835392240
9835398954
9835405790
9835410978
9835418180
9835423368
9835431242
9835438200
9835444547
9835449064
9835456449
9835463102
9835469389
9835473844
9835480924
9835486967
9835493253
9835499662
9835506254
9835513273
9835519742
9835524747
9835530912
9835537809
9835542386
9835550260
9835554899
9835561551
9835567716
9835573758
9835580533
9835587003
9835591703
9835598539
9835603238
9835610257
9835616117
9835621854
9835628568
9835634244
9835639798
9835645413
9835651761
9835657559
9835662686
9835668485
9835675260
9835680264
9835687283
9835693204
9835698697
9835704678
9835708951
9835721524
9835726773
9835733853
9835739407
9835745084
9835751065
9835760098
9835766629
9835772549
9835777737
9835784878
9835790311
9835797940
9835803860
9835810452
9835816800
9835821560
9835828885
9835834561
9835841702
9835850003
9835857022
9835863675
9835870327
9835876980
9835883267
9835889248
9835896572
9835904019
9835909390
9835916287
9835921719
9835930081
9835935452
9835942959
9835946804
9835955288
9835960781
9835967617
9835972988
9835980618
9835986050
9835994045
9835998745
9836007961
9836011746
9836020535
9836026760
9836033230
9836041164
9836048000
9836053860
9836060451
9836070644
9836075344
9836083218
9836090053
9836097133
9836103664
9836112026
9836117580
9836124172
9836131862
9836139553
9836146511
9836152858
9836161281
9836168178
9836175136
9836181484
9836186977
9836193813
9836202785
9836209621
9836216152
9836221950
9836228542
9836235073
9836240932
9836249599
9836257594
9836262111
9836270046
9836277309
9836284084
9836290431
9836296352
9836303188
9836308864
9836315517
9836322353
9836330470
9836335597
9836344386
9836349757
9836355617
9836362392
9836369594
9836376491
9836382411
9836389613
9836394862
9836401149
9836408656
9836417323
9836426967
9836432033
9836440455
9836447657
9836454493
9836462062
9836469081
9836476344
9836482142
9836488063
9836494532
9836503199
9836509364
9836515162
9836523219
9836529689
9836537196
9836545436
9836551661
9836558619
9836564967
9836572352
9836577601
9836586146
9836594203
9836601099
9836610194
9836617091
9836622950
9836629481
9836636927
9836644556
9836652308
9836658961
9836669092
9836676783
9836683008
9836690821
9836700342
9836707789
9836714808
9836722071
9836728113
9836738550
9836747095
9836753687
9836761927
9836768091
9836775721
9836783716
9836789453
9836797022
9836805078
9836811304
9836819300
9836823816
9836832910
9836839319
9836847498
9836853967
9836861292
9836870386
9836878259
9836885523
9836896570
9836901453
9836912134
9836917139
9836928064
9836937219
9836943323
9836947961
9836958765
9836965784
9836972681
9836976465
9836984888
9836992456
9836998559
9837003869
9837009546
9837016443
9837020715
9837026880
9837033532
9837041528
9837046838
9837052636
9837058801
9837064294
9837070947
9837077966
9837087121
9837095605
9837103601
9837107324
9837116723
9837121850
9837128442
9837135156
9837140161
9837146874
9837151452
9837159509
9837164147
9837169396
9837175927
9837181542
9837187280
9837191735
9837198022
9837203881
9837209618
9837215112
9837220177
9837227746
9837233910
9837238427
9837246056
9837252709
9837258691
9837264428
9837269311
9837273949
9837280114
9837287499
9837292687
9837299096
9837304345
9837309472
9837315575
9837320153
9837327477
9837331383
9837339013
9837344994
9837349938
9837356957
9837364159
9837370263
9837377037
9837383812
9837388817
9837395775
9837403893
9837409203
9837416832
9837424034
9837429955
9837438072
9837443566
9837448815
9837456505
9837460900
9837468895
9837475670
9837480614
9837489647
9837495873
9837501976
9837508934
9837515282
9837522057
9837529076
9837534203
9837542259
9837547752
9837555565
9837562950
9837569969
9837576988
9837586387
9837591331
9837600853
9837607689
9837612938
9837621177
9837629295
9837635948
9837641990
9837648338
9837654075
9837660789
9837668174
9837675010
9837681541
9837687156
9837694297
9837699974
9837708519
9837715354
9837721763
9837729209
9837735923
9837742332
9837751060
9837757591
9837763694
9837769615
9837777732
9837783897
9837791404
9837798972
9837804527
9837811607
9837817832
9837824241
9837830894
9837837302
9837843345
9837850852
9837857200
9837863853
9837872092
9837880210
9837884849
9837890586
9837899009
9837904624
9837910972
9837918296
9837925498
9837936667
9837946433
9837954245
9837962424
9837971274
9837978110
9837985068
9837992453
9837998862
9838004721
9838011740
9838018454
9838025595
9838031760
9838037802
9838044577
9838050315
9838058249
9838064719
9838071555
9838077658
9838084006
9838091879
9838100913
9838108298
9838116599
9838123923
9838130881
9838137472
9838143698
9838152975
9838160483
9838167563
9838175009
9838180929
9838188315
9838197165
9838202170
9838210409
9838216025
9838222311
9838230795
9838236960
9838244162
9838249594
9838256064
9838263754
9838270651
9838277365
9838284323
9838292013
9838296957
9838306662
9838312521
9838320211
9838327902
9838334677
9838342245
9838350302
9838358053
9838365377
9838370687
9838380636
9838386617
9838393270
9838402303
9838407308
9838415487
9838421896
9838431783
9838440511
9838447591
9838454793
9838461141
9838468160
9838474691
9838480733
9838487386
9838492330
9838498495
9838504659
9838512044
9838519063
9838525289
9838531087
9838537252
9838542745
9838549093
9838555196
9838562825
9838568319
9838572591
9838578511
9838585164
9838591146
9838598897
9838603109
9838610189
9838616414
9838621968
9838628682
9838633321
9838640401
9838648213
9838654622
9838659871
9838664266
9838670796
9838677998
9838684651
9838693318
9838701009
9838707661
9838714192
9838721272
9838728658
9838734273
9838739033
9838745625
9838751485
9838756612
9838763447
9838769978
9838775349
9838782246
9838788960
9838792927
9838800191
9838806294
9838811726
9838818928
9838823750
9838832112
9838838521
9838845173
9838851582
9838857136
9838863240
9838869892
9838878193
9838884663
9838891194
9838897358
9838904072
9838908955
9838917256
9838923176
9838929524
9838936177
9838942036
9838950031
9838957722
9838963947
9838971821
9838977070
9838982868
9838991230
9838996967
9839005024
9839009602
9839015583
9839021992
9839029560
9839034321
9839042561
9839051166
9839056782
9839063740
9839069660
9839076679
9839084125
9839089191
9839096882
9839103290
9839108539
9839115986
9839123737
9839129230
9839135944
9839142841
9839148578
9839156635
9839161884
