10157531247
10157536435
10157541562
10157547605
10157552304
10157556821
10157562375
10157567746
10157572507
10157576291
10157581723
10157585751
10157591061
10157595883
10157601559
10157606442
10157610776
10157616330
10157621396
10157626828
10157631283
10157637387
10157642758
10157648251
10157655026
10157660580
10157665219
10157672238
10157679867
10157684750
10157691647
10157699276
10157706540
10157714352
10157720883
10157727108
10157734860
10157741391
10157749081
10157756466
10157764401
10157771420
10157778195
10157784359
10157792660
10157797787
10157805538
10157813229
10157820431
10157828182
10157833553
10157842098
10157848751
10157856625
10157865353
10157870663
10157878658
10157886532
10157893002
10157900448
10157907833
10157916439
10157923763
10157930538
10157937435
10157942745
10157952572
10157960689
10157967953
10157974972
10157981380
10157989132
10157994930
10158006405
10158013179
10158020504
10158028988
10158034969
10158043087
10158047298
10158059444
10158066646
10158074398
10158080806
10158087276
10158097347
10158106807
10158112789
10158121089
10158126888
10158136348
10158143855
10158150630
10158156978
10158164180
10158170894
10158178828
10158186458
10158194087
10158200862
10158208736
10158214534
10158224239
10158229121
10158238399
10158245845
10158253535
10158261531
10158267512
10158278316
10158286250
10158294490
10158300960
10158308345
10158316829
10158325129
10158332087
10158338984
10158346736
10158353694
10158359675
10158368159
10158375361
10158382685
10158390925
10158398249
10158406916
10158413203
10158422907
10158429926
10158437373
10158444819
10158452693
10158460627
10158464961
10158474726
10158482600
10158490046
10158499323
10158503535
10158513117
10158521479
10158529841
10158538019
10158545283
10158554133
10158561274
10158569941
10158577265
10158583674
10158592890
10158599604
10158606745
10158615168
10158622858
10158631342
10158638117
10158647516
10158659845
10158668451
10158682428
10158694879
10158703974
10158712824
10158721552
10158729852
10158734674
10158745722
10158753534
10158762201
10158770624
10158777277
10158786676
10158792902
10158800531
10158806879
10158816583
10158826410
10158833429
10158841730
10158849420
10158856683
10158864557
10158871881
10158880792
10158888788
10158895257
10158904596
10158912957
10158920831
10158928460
10158936700
10158943658
10158951898
10158959466
10158967950
10158974420
10158983026
10158992181
10158999810
10159007989
10159015130
10159022454
10159029473
10159036981
10159046258
10159055230
10159063165
10159070123
10159077325
10159084649
10159091485
10159097588
10159108636
10159115594
10159122552
10159129632
10159135735
10159144463
10159151421
10159160637
10159165642
10159178155
10159185051
10159193902
10159201348
10159206292
10159216179
10159224663
10159230706
10159238335
10159244072
10159252983
10159260796
10159268975
10159276787
10159283013
10159290886
10159295220
10159304558
10159311394
10159319512
10159326836
10159332756
10159342644
10159349785
10159357109
10159364922
10159371941
10159383354
10159390739
10159399284
10159406792
10159416618
10159424065
10159431755
10159438835
10159445732
10159453056
10159461357
10159466850
10159476127
10159483757
10159490959
10159499321
10159507011
10159515495
10159523430
10159531303
10159538505
10159547050
10159553398
10159562492
10159568962
10159579032
10159586784
10159593742
10159602592
10159612296
10159620109
10159628959
10159637992
10159646537
10159654594
10159663261
10159673759
10159680534
10159689750
10159697501
10159705680
10159713737
10159722526
10159730704
10159739371
10159748282
10159755912
10159764579
10159772513
10159780265
10159788016
10159796500
10159802726
10159810965
10159817801
10159824759
10159828910
10159838858
10159845450
10159853324
10159859732
10159866751
10159874381
10159882804
10159890738
10159899100
10159909110
10159919425
10159926505
10159934744
10159941580
10159948111
10159956473
10159962820
10159970572
10159977591
10159984305
10159990836
10159996207
10160004385
10160011099
10160017813
10160023611
10160031302
10160036795
10160044913
10160052786
10160059988
10160066031
10160072561
10160078909
10160084829
10160093374
10160099539
10160105337
10160113150
10160119986
10160125540
10160132498
10160140432
10160148672
10160154104
10160162039
10160168569
10160176748
10160182608
10160191336
10160197744
10160206167
10160213918
10160220876
10160228262
10160236685
10160246389
10160251333
10160261465
10160270986
10160277212
10160282034
10160293325
10160301504
10160310476
10160320730
10160327383
10160334646
10160341421
10160347829
10160355459
10160362600
10160368642
10160376699
10160383169
10160389760
10160397634
10160406118
10160413503
10160423452
10160428212
10160438161
10160442739
10160452016
10160456777
10160466786
10160473378
10160481069
10160487477
10160496755
10160503224
10160511830
10160518422
10160524892
10160533254
10160539479
10160547902
10160555470
10160561391
10160568959
10160576711
10160584706
10160590688
10160598805
10160606557
10160613454
10160621144
10160628468
10160634450
10160642872
10160651539
10160659901
10160668019
10160674061
10160681813
10160686329
10160695973
10160704396
10160713368
10160717946
10160728199
10160732838
10160743519
10160748219
10160758168
10160765858
10160773915
10160778675
10160788014
10160795277
10160801563
10160808094
10160817372
10160825428
10160834217
10160840992
10160848316
10160856739
10160862537
10160871449
10160877735
10160886219
10160894276
10160903492
10160909901
10160918751
10160925098
10160930897
10160941639
10160948109
10160956409
10160965503
10160973926
10160980945
10160989429
10160996387
10161005787
10161012256
10161022693
10161029285
10161037647
10161046314
10161054920
10161062549
10161070117
10161076770
10161085926
10161092334
10161100818
10161107044
10161114368
10161120349
10161127429
10161135181
10161142810
10161148975
10161158435
10161164539
10161171313
10161179065
10161184741
10161192493
10161198718
10161206714
10161214343
10161219592
10161226611
10161231982
10161237231
10161241931
10161250110
10161253894
10161263293
10161269336
10161276233
10161282397
10161289233
10161295459
10161300708
10161308459
10161314868
10161320666
10161324450
10161331836
10161335681
10161345690
10161352099
10161358447
10161364733
10161369616
10161375720
10161380908
10161389331
10161395251
10161400927
10161406603
10161412402
10161419238
10161423754
10161429614
10161435778
10161442126
10161446703
10161453234
10161458361
10161464220
10161469775
10161475878
10161483141
10161487475
10161493761
10161498339
10161505175
10161510302
10161517809
10161522753
10161527941
10161533800
10161538988
10161544970
10161550707
10161558153
10161562609
10161569872
10161575121
10161581041
10161586107
10161591356
10161597216
10161603136
10161609484
10161616625
10161622972
10161628649
10161636278
10161642687
10161650072
10161657640
10161663072
10161671129
10161676805
10161682299
10161688402
10161694750
10161701525
10161706346
10161712633
10161717394
10161723863
10161728807
10161737413
10161743944
10161749925
10161755174
10161760667
10161766161
10161771715
10161778368
10161785142
10161791429
10161796373
10161802965
10161808092
10161816270
10161819993
10161829881
10161836046
10161842149
10161848253
10161854295
10161860704
10161865342
10161872545
10161879686
10161886339
10161890733
10161897447
10161904100
10161909959
10161914903
10161922349
10161927598
10161936326
10161939927
10161948411
10161952623
10161960496
10161967820
10161975205
10161980699
10161987107
10161992723
10161999192
10162004930
10162010301
10162016953
10162022019
10162030015
10162035203
10162042649
10162049058
10162055100
10162060899
10162067796
10162073899
10162079942
10162086533
10162092576
10162098740
10162104722
10162111252
10162117966
10162124131
10162131455
10162136765
10162143235
10162149705
10162154709
10162161301
10162166794
10162174485
10162179551
10162187119
10162194382
10162201767
10162210007
10162218796
10162226548
10162234299
10162241623
10162250473
10162256821
10162263901
10162272629
10162279160
10162283005
10162291306
10162297959
10162304672
10162312607
10162319748
10162326279
10162331040
10162337631
10162343979
10162350571
10162356979
10162363266
10162369797
10162376328
10162383347
10162389999
10162395065
10162403244
10162408066
10162417343
10162422653
10162430221
10162435592
10162443283
10162448715
10162455978
10162461410
10162467575
10162473007
10162481308
10162488327
10162494919
10162500595
10162507064
10162514022
10162520553
10162527694
10162534591
10162542160
10162548324
10162555099
10162563522
10162571578
10162577316
10162586227
10162592086
10162601364
10162607467
10162614486
10162622176
10162630538
10162639022
10162644943
10162652755
10162661605
10162668136
10162677718
10162683700
10162692611
10162701522
10162709334
10162715743
10162725326
10162731124
10162738387
10162746383
10162755294
10162761031
10162770308
10162776107
10162783126
10162790938
10162798507
10162806319
10162813765
10162822676
10162830062
10162838179
10162845992
10162856673
10162863875
10162871138
10162877974
10162884871
10162892806
10162898177
10162906416
10162911910
10162919600
10162925948
10162935042
10162939070
10162950972
10162957198
10162962325
10162969588
10162975996
10162983321
10162986983
10162995100
10163002058
10163008345
10163014937
10163019636
10163026716
10163033430
10163039717
10163045271
10163051008
10163056807
10163063215
10163069868
10163076277
10163082258
10163087751
10163093184
10163097761
10163104231
10163110884
10163117231
10163123701
10163129866
10163134993
10163140730
10163146589
10163153547
10163160078
10163165449
10163173323
10163178083
10163184431
10163190473
10163197675
10163204450
10163210371
10163216596
10163224653
10163231794
10163236799
10163244856
10163251020
10163255476
10163262434
10163268720
10163274946
10163284406
10163290082
10163296552
10163303388
10163309247
10163315595
10163322614
10163329999
10163336347
10163343915
10163351240
10163357770
10163364911
10163370160
10163378644
10163383344
10163389875
10163395978
10163403241
10163409284
10163415509
10163420942
10163428510
10163437909
10163445417
10163455670
10163462689
10163470319
10163478498
10163485944
10163492780
10163497968
10163505963
10163513104
10163521466
10163528058
10163534528
10163540082
10163546674
10163553326
10163560223
10163567426
10163574628
10163580609
10163587506
10163593487
10163600629
10163606671
10163612103
10163619733
10163625104
10163633343
10163637066
10163647748
10163654339
10163660870
10163666668
10163673199
10163677899
10163685894
10163692547
10163699688
10163706463
10163712933
10163719464
10163726544
10163733441
10163738446
10163746624
10163752117
10163759686
10163765240
10163773358
10163778973
10163787029
10163790997
10163801312
10163806805
10163813336
10163820538
10163827068
10163832684
10163839153
10163846478
10163852825
10163859356
10163866619
10163872967
10163878399
10163885845
10163891094
10163899944
10163906719
10163913128
10163920025
10163926433
10163931804
10163938152
10163945354
10163952617
10163959331
10163964580
10163971843
10163977764
10163984111
10163990581
10163998027
10164004558
10164011150
10164017803
10164023235
10164030986
10164037944
10164044353
10164051006
10164058879
10164067180
10164072429
10164081401
10164087016
10164094890
10164107463
10164114971
10164120281
10164127483
10164134197
10164139812
10164148479
10164154399
10164161052
10164168376
10164175029
10164179729
10164187541
10164195720
10164200603
10164207866
10164214458
10164220561
10164227031
10164234355
10164239299
10164247539
10164255168
10164261943
10164267314
10164274089
10164279460
10164287272
10164292643
10164300822
10164310344
10164317179
10164324076
10164329570
10164336650
10164343241
10164350932
10164358256
10164365458
10164371318
10164379862
10164387370
10164394694
10164401225
10164411173
10164416178
10164426005
10164430705
10164439921
10164446452
10164454203
10164460612
10164470194
10164476664
10164484537
10164491312
10164498637
10164506632
10164513712
10164519449
10164527628
10164534159
10164540568
10164547281
10164553202
10164559244
10164565165
10164571268
10164578104
10164585306
10164590921
10164596720
10164604166
10164609964
10164614847
10164621317
10164627787
10164633951
10164640421
10164646952
10164653726
10164657511
10164665262
10164671793
10164677896
10164684854
10164691324
10164698099
10164703470
10164712991
10164718363
10164726358
10164730325
10164740823
10164749429
10164755228
10164762979
10164766580
10164775369
10164782022
10164788126
10164793924
10164798746
10164806802
10164812112
10164818765
10164822244
10164830057
10164837198
10164842996
10164848245
10164854226
10164860635
10164866800
10164872964
10164877847
10164884561
10164889322
10164896341
10164900979
10164907937
10164914773
10164920510
10164926492
10164932229
10164939004
10164943215
10164950357
10164954934
10164962441
10164967324
10164974160
10164979287
10164988381
10164994485
10165000344
10165006875
10165013223
10165019021
10165025308
10165032082
10165037331
10165045815
10165049477
10165057351
10165064065
10165068398
10165076699
10165084511
10165090371
10165094033
10165102517
10165108925
10165115273
10165122964
10165128579
10165136086
10165141457
10165149025
10165156045
10165162392
10165170571
10165176003
10165183754
10165189003
10165196999
10165200844
10165209084
10165215859
10165222939
10165229164
10165236122
10165243325
10165248574
10165256264
10165262978
10165269509
10165276955
10165282448
10165290566
10165297829
10165304421
10165311623
10165319801
10165334267
10165341042
10165347572
10165353737
10165360207
10165366371
10165374428
10165381020
10165387733
10165394264
10165400673
10165407997
10165412880
10165420753
10165427833
10165434608
10165440101
10165447426
10165452797
10165461220
10165467384
10165474952
10165478614
10165487220
10165491005
10165502296
10165507545
10165513954
10165521644
10165528358
10165533851
10165540260
10165546058
10165552467
10165558387
10165563514
10165571021
10165576393
10165584998
10165588416
10165596046
10165601661
10165608619
10165614295
10165622596
10165628761
10165633277
10165639747
10165645667
10165651405
10165658729
10165665382
10165672523
10165678809
10165685828
10165690711
10165695533
10165703223
10165708106
10165715186
10165723121
10165728126
10165735206
10165741248
10165746314
10165753882
10165759253
10165766211
10165774024
10165780433
10165785621
10165790564
10165798560
10165804175
10165812049
10165818885
10165825293
10165833777
10165839759
10165847815
10165854468
10165863745
10165871802
10165878821
10165886023
10165893469
10165900305
10165910925
10165921484
10165929968
10165938513
10165947119
10165951331
10165959875
10165967017
10165975195
10165982275
10165987463
10165995398
10166000769
10166007727
10166013098
10166021826
10166028296
10166034521
10166038977
10166047339
10166053015
10166059179
10166066259
10166073401
10166080664
10166086401
10166093298
10166100805
10166107763
10166113867
10166120703
10166126684
10166137731
10166144018
10166151708
10166158361
10166164831
10166172521
10166178686
10166183447
10166192663
10166198950
10166205419
10166211279
10166218786
10166225011
10166230749
10166237402
10166244726
10166251073
10166258092
10166264501
10166271520
10166277257
10166283483
10166289648
10166297216
10166302160
10166311315
10166315648
10166322423
10166327611
10166333654
10166340246
10166346593
10166353124
10166358800
10166363622
10166368932
10166377355
10166383092
10166390416
10166396825
10166401830
10166407445
10166412816
10166419347
10166426061
10166432286
10166437291
10166443456
10166449071
10166454930
10166460973
10166468846
10166472875
10166483129
10166492345
10166499852
10166509129
10166516942
10166521703
10166527196
10166533116
10166538731
10166546849
10166552220
10166558079
10166564671
10166570775
10166576634
10166583775
10166589879
10166596898
10166601353
10166607579
10166614354
10166620946
10166627720
10166633336
10166639073
10166645848
10166651341
10166657200
10166663426
10166670445
10166673924
10166680943
10166686680
10166692784
10166700840
10166707798
10166713597
10166720433
10166726048
10166731724
10166737583
10166743687
10166751499
10166758702
10166763767
10166770970
10166776035
10166781895
10166787815
10166797703
10166804844
10166811619
10166819798
10166826756
10166835117
10166841526
10166845188
10166854282
10166859592
10166865696
10166872410
10166879185
10166887913
10166894810
10166901035
10166908359
10166915378
10166922458
10166930149
10166937229
10166944614
10166951633
10166955173
10166964328
10166971042
10166979648
10166985386
10166992710
10166999057
10167002719
10167011386
10167023838
10167027561
10167039829
10167049350
10167061435
10167069675
10167077365
10167082309
10167090183
10167096164
10167102023
10167109287
10167116184
10167123935
10167130466
10167136264
10167142184
10167148776
10167155063
10167161533
10167168613
10167174838
10167181857
10167187900
10167194675
10167202182
10167206027
10167217135
10167225436
10167229587
10167238254
10167245700
10167253573
10167259921
10167268832
10167276828
10167282016
10167290561
10167297152
10167304721
10167312899
10167320590
10167327487
10167333895
10167342562
10167349154
10167356967
10167363741
10167370944
10167378390
10167385470
10167394564
10167402010
10167409213
10167416048
10167423678
10167431673
10167437960
10167446200
10167452731
10167461336
10167469393
10167476717
10167484164
10167493441
10167499361
10167505831
10167514681
10167522860
10167530428
10167537935
10167544588
10167553438
10167561068
10167568026
10167575777
10167583101
10167590609
10167598543
10167606905
10167611910
10167621431
10167630525
10167639009
10167645174
10167653841
10167662569
10167672579
10167681673
10167690340
10167699251
10167706148
10167712373
10167719698
10167726778
10167733430
10167738557
10167746492
10167753084
10167758638
10167764986
10167771150
10167777559
10167781892
10167788118
10167793916
10167799714
10167805391
10167813142
10167818086
10167825105
10167829988
10167837922
10167843232
10167849336
10167855317
10167862092
10167868501
10167874299
10167879731
10167885408
10167891267
10167896394
10167901887
10167908784
10167915193
10167919526
10167925874
10167930451
10167936738
10167943086
10167950044
10167956574
10167960420
10167966401
10167972199
10167978425
10167983186
10167989228
10167995881
10168001923
10168008088
10168013276
10168019257
10168024995
10168030244
10168036652
10168043000
10168048493
10168053803
10168059296
10168064851
10168070161
10168076081
10168083283
10168087678
10168093842
10168098359
10168105500
10168110200
10168116791
10168124054
10168130219
10168136689
10168142975
10168150300
10168155365
10168164277
10168170014
10168175995
10168183197
10168190583
10168196503
10168202973
10168211640
10168217926
10168224762
10168233734
10168239166
10168247223
10168251312
10168261261
10168267548
10168273956
10168280670
10168287140
10168293732
10168303680
10168310028
10168316681
10168323639
10168328766
10168336456
10168342255
10168348602
10168352081
10168361969
10168368561
10168374664
10168379852
10168385956
10168392731
10168398712
10168405365
10168411957
10168418365
10168424103
10168431000
10168436065
10168446441
10168451873
10168462005
10168468597
10168473236
10168480499
10168487030
10168492767
10168499359
10168505035
10168511810
10168517913
10168525177
10168529876
10168537017
10168542877
10168549041
10168556060
10168560027
10168569000
10168576507
10168582977
10168590301
10168597259
10168604827
10168611053
10168618255
10168625335
10168632598
10168640533
10168647613
10168654021
10168661468
10168668426
10168673797
10168681121
10168686492
10168693755
10168699126
10168708037
10168714080
10168720489
10168726775
10168733245
10168739470
10168745879
10168752532
10168759124
10168765715
10168772124
10168778533
10168785430
10168790190
10168797942
10168804473
10168811797
10168819609
10168827361
10168835051
10168843047
10168851348
10168856963
10168866850
10168876982
10168884673
10168892485
10168897978
10168905791
10168910613
10168918974
10168926237
10168932646
10168938017
10168945586
10168951018
10168957121
10168964140
10168972502
10168978544
10168986540
10168992522
10169000273
10169006254
10169013762
10169019865
10169027006
10169033110
10169041594
10169047575
10169055937
10169061796
10169068815
10169074675
10169083097
10169089018
10169097746
10169101957
10169110258
10169116178
10169124967
10169132048
10169140348
10169147978
10169155790
10169160551
10169169767
10169176115
10169183500
10169191862
10169199430
10169205839
10169215055
10169221647
10169229032
10169237394
10169244718
10169251432
10169258329
10169266935
10169273221
10169281095
10169288053
10169295682
10169302457
10169310270
10169319364
10169328275
10169335721
10169344693
10169350553
10169358915
10169365873
10169371549
10169379789
10169387113
10169393582
10169398343
10169405423
10169412137
10169418119
10169423429
10169430142
10169437161
10169443814
10169449491
10169456388
10169461575
10169469571
10169474759
10169482816
10169488675
10169494779
10169498746
10169507596
10169513638
10169519925
10169526883
10169534512
10169540921
10169548306
10169555569
10169561001
10169568997
10169574979
10169582486
10169589749
10169595425
10169598660
10169606228
10169613614
10169619351
10169625454
10169631558
10169637112
10169643338
10169648404
10169654690
10169660489
10169665249
10169672390
10169677212
10169683621
10169688321
10169695462
10169700955
10169707669
10169714932
10169721463
10169727322
10169733486
10169739590
10169744473
10169751187
10169756008
10169762600
10169767483
10169775234
10169780605
10169786343
10169792629
10169798367
10169803982
10169809841
10169816372
10169820644
10169828213
10169832851
10169840542
10169845608
10169852993
10169857937
10169865810
10169871548
10169877529
10169883205
10169889858
10169895656
10169904079
10169909572
10169915981
10169921840
10169926479
10169932949
10169937526
10169945522
10169953212
10169959499
10169966213
10169971462
10169978176
10169985317
10169993007
10169999050
10170006618
10170012722
10170019191
10170026576
10170031215
10170038234
10170045314
10170052394
10170057582
10170063930
10170069484
10170077968
10170081447
10170092372
10170098964
10170103969
10170112270
10170120204
10170126247
10170134120
10170141322
10170146388
10170158534
10170165004
10170172145
10170178371
10170184840
10170192286
10170199367
10170205104
10170212428
10170217433
10170224696
10170231288
10170236842
10170244716
10170250270
10170257838
10170263148
10170270045
10170275416
10170283107
10170288295
10170296656
10170303370
10170309840
10170316981
10170322047
10170329371
10170335902
10170343836
10170349146
10170357081
10170364039
10170369288
10170376307
10170382044
10170389491
10170395716
10170403529
10170408900
10170414454
10170422144
10170427698
10170436243
10170440028
10170449793
10170453699
10170462183
10170468531
10170475184
10170482752
10170489222
10170496363
10170502588
10170509913
10170514368
10170522059
10170527735
10170534693
10170539881
10170548243
10170555750
10170562647
10170568079
10170575830
10170581385
10170588160
10170593531
10170601770
10170608301
10170615320
10170618982
10170626612
10170632227
10170639490
10170645044
10170653467
10170658899
10170667688
10170674707
10170681116
10170684778
10170693384
10170700830
10170708948
10170713586
10170725610
10170733667
10170740991
10170748132
10170755334
10170761621
10170770288
10170780786
10170787622
10170794031
10170801416
10170808374
10170814172
10170823999
10170831140
10170838159
10170844445
10170850915
10170857202
10170863794
10170871423
10170878503
10170884607
10170891198
10170898339
10170903222
10170911340
10170916467
10170926843
10170932519
10170940942
10170946496
10170952538
10170960290
10170966638
10170972009
10170979943
10170988305
10170995629
10171001244
10171009972
10171015282
10171022851
10171028283
10171038415
10171044335
10171053063
10171058373
10171065270
10171072045
10171077355
10171081689
10171089501
10171094628
10171100609
10171106896
10171113061
10171117943
10171124596
10171129479
10171136681
10171143883
10171150109
10171155114
10171161034
10171167015
10171172875
10171176964
10171184838
10171191979
10171196556
10171203636
10171209984
10171215050
10171221337
10171227440
10171232384
10171240196
10171245751
10171250572
10171255394
10171262291
10171267174
10171275963
10171282188
10171287865
10171293968
10171297997
10171304771
10171309105
10171315514
10171322716
10171328392
10171331749
10171338829
10171345177
10171350548
10171355919
10171361900
10171368797
10171374657
10171379906
10171386680
10171392601
10171398338
10171410179
10171415733
10171422142
10171428489
10171434776
10171441307
10171448692
10171453941
10171459251
10171465843
10171471824
10171477806
10171483055
10171492149
10171498191
10171504112
10171510765
10171516014
10171523826
10171529502
10171536827
10171542991
10171550254
10171557151
10171561912
10171568443
10171576072
10171582359
10171587974
10171596153
10171600669
10171608360
10171614219
10171620750
10171628379
10171632224
10171641318
10171646873
10171653464
10171661155
10171666648
10171675132
10171681479
10171687827
10171694907
10171702353
10171709556
10171716269
10171723777
10171729819
10171736655
10171743430
10171751792
10171758933
10171765342
10171771750
10171778647
10171785178
10171790915
10171798911
10171804404
10171812339
10171820029
10171826987
10171833274
10171840415
10171846091
10171853781
10171861350
10171868247
10171873435
10171881308
10171889121
10171895712
10171901205
10171909140
10171914633
10171922385
10171926108
10171937582
10171945761
10171954672
10171959799
10171967673
10171975668
10171982138
10171990072
10171995993
10172002951
10172009054
10172014425
10172022787
10172028280
10172036093
10172039999
10172048605
10172055746
10172062399
10172069418
10172076132
10172081503
10172088644
10172095541
10172101950
10172108480
10172114889
10172121908
10172126791
10172134603
10172141683
10172147665
10172154745
10172159933
10172166891
10172174093
10172179830
10172188497
10172194540
10172201620
10172207967
10172216756
10172223592
10172230611
10172234762
10172244833
10172253316
10172258932
10172266683
10172273580
10172278707
10172286764
10172293599
10172300619
10172307393
10172314412
10172321370
10172328389
10172335592
10172342733
10172350179
10172357991
10172364888
10172372152
10172378987
10172386678
10172394124
10172401753
10172407918
10172416036
10172423909
10172431600
10172437520
10172445699
10172453999
10172459981
10172468221
10172476216
10172483785
10172491536
10172498433
10172506367
10172513325
10172521016
10172528218
10172536030
10172543050
10172550801
10172556721
10172564717
10172573079
10172578877
10172586262
10172595967
10172603718
10172611958
10172619282
10172628315
10172634907
10172643635
10172652607
10172661457
10172673481
10172677876
10172687764
10172692158
10172700825
10172707600
10172714009
10172717732
10172725971
10172732380
10172738667
10172745686
10172751850
10172758564
10172763203
10172771015
10172777912
10172783649
10172791218
10172796711
10172801899
10172809772
10172815754
10172821979
10172828388
10172834736
10172840778
10172847065
10172855060
10172861957
10172868732
10172874348
10172881733
10172887043
10172894428
10172900348
10172907428
10172910969
10172919330
10172925434
10172931110
10172936542
10172942157
10172950336
10172956989
10172961872
10172966754
10172973529
10172979938
10172985309
10172993000
10172999286
10173005329
10173010028
10173016742
10173021686
10173029498
10173035480
10173041889
10173047443
10173052936
10173059589
10173064166
10173071063
10173076251
10173084491
10173090289
10173095966
10173101886
10173107684
10173113238
10173118854
10173125079
10173131183
10173138202
10173144733
10173150714
10173155658
10173162982
10173168719
10173175189
10173178546
10173186603
10173190204
10173199969
10173205584
10173211627
10173219561
10173225299
10173235125
10173242999
10173248675
10173256854
10173262469
10173272601
10173277423
10173284442
10173293109
10173298052
10173305010
10173311724
10173319232
10173324603
10173331317
10173339190
10173345782
10173352313
10173358721
10173365313
10173370196
10173377581
10173384966
10173391070
10173398150
10173404375
10173411456
10173417254
10173424090
10173430254
10173435747
10173443255
10173448809
10173457415
10173464434
10173470843
10173477190
10173483782
10173490374
10173497576
10173503801
10173508623
10173516924
10173523882
10173529985
10173537066
10173543230
10173548845
10173555803
10173562883
10173570208
10173576311
10173583513
10173590532
10173597002
10173601580
10173608660
10173615312
10173622270
10173629045
10173635393
10173642168
10173648576
10173654131
10173660539
10173667436
10173674516
10173681963
10173687456
10173694597
10173700700
10173707658
10173714311
10173721635
10173728410
10173735185
10173740373
10173747270
10173753557
10173758928
10173767595
10173775407
10173781511
10173787736
10173792619
10173799821
10173806596
10173814958
10173821061
10173830156
10173834367
10173844011
10173851884
10173859758
10173864579
10173877519
10173884111
10173890580
10173898942
10173905168
10173912553
10173918107
10173925797
10173931230
10173939835
10173943742
10173952165
10173959062
10173966081
10173973100
10173981034
10173987931
10173995194
10173999528
10174008805
10174012955
10174021744
10174028580
10174036271
10174043290
10174050736
10174056779
10174063859
10174071305
10174078629
10174085831
10174092911
10174100968
10174106461
10174114029
10174121170
10174128006
10174135086
10174143143
10174149002
10174157059
10174164688
10174170731
10174178726
10174184220
10174193436
10174198014
10174209000
10174217240
10174223221
10174230911
10174238541
10174243118
10174253189
10174257889
10174268509
10174275528
10174285233
10174289932
10174299210
10174305618
10174314407
10174321854
10174328018
10174334732
10174344253
10174350967
10174359512
10174365982
10174372452
10174380447
10174388199
10174394546
10174402115
10174407974
10174415481
10174420974
10174427322
10174433609
10174441726
10174448928
10174454788
10174461929
10174466384
10174473587
10174478775
10174486160
10174494155
10174500564
10174506057
10174511978
10174517837
10174524429
10174530837
10174538833
10174547988
10174554946
10174562087
10174568984
10174574416
10174583266
10174589248
10174597427
10174602676
10174610000
10174615249
10174621657
10174628677
10174634292
10174640578
10174646316
10174651748
10174657607
10174663527
10174669204
10174675246
10174681594
10174688003
10174692824
10174700087
10174704787
10174711074
10174715834
10174723769
10174730544
10174736159
10174742019
10174747817
10174754103
10174760390
10174766921
10174771743
10174777907
10174782729
10174789565
10174794448
10174801650
10174807082
10174813368
10174820204
10174826003
10174832045
10174838088
10174843703
10174849562
10174856032
10174862746
10174868544
10174873427
10174880446
10174887465
10174893263
10174900648
10174908278
10174914381
10174920546
10174926894
10174933485
10174940077
10174948195
10174957106
10174962050
10174969557
10174975966
10174982130
10174988600
10174996412
10175001356
10175009596
10175015089
10175021620
10175028761
10175035292
10175040846
10175049086
10175054457
10175061354
10175067579
10175073866
10175080213
10175088575
10175096327
10175101026
10175108839
10175116041
10175122511
10175128797
10175136305
10175142347
10175150770
10175156812
10175165113
10175172498
10175180250
10175188062
10175194776
10175198560
10175207777
10175216566
10175221448
10175228834
10175235792
10175242261
10175247205
10175254346
10175261670
10175268506
10175275464
10175281690
10175287061
10175293775
10175301465
10175307019
10175312574
10175320997
10175325025
10175333448
10175339734
10175347791
10175352369
10175361463
10175367017
10175373609
10175380872
10175387219
10175392285
10175398877
10175406446
10175415723
10175423840
10175427869
10175436902
10175443250
10175449841
10175453809
10175462537
10175469983
10175476575
10175483044
10175489697
10175496838
10175501965
10175508984
10175515515
10175522229
10175528638
10175534924
10175541333
10175548535
10175553418
10175563122
10175569043
10175577710
10175583752
10175590649
10175598401
10175604077
10175611889
10175619458
10175627087
10175633618
10175639782
10175648327
10175654370
10175660534
10175668225
10175674145
10175682080
10175689709
10175695812
10175703747
10175709789
10175717358
10175723339
10175730236
10175739025
10175747509
10175753979
10175762035
10175768566
10175775646
10175784191
10175791637
10175798595
10175808056
10175820019
10175825695
10175833324
10175842296
10175847301
10175859325
10175864391
10175876537
10175884533
10175890575
10175899364
10175906139
10175913097
10175919017
10175927074
10175933178
10175941295
10175947277
10175955089
10175961010
10175970470
10175974681
10175983776
10175988048
10175997508
10176004527
10176011730
10176019725
10176027416
10176034129
10176041820
10176047496
10176055919
10176064281
10176070079
10176077464
10176086375
10176090648
10176099986
10176107310
10176112132
10176117992
10176125682
10176131053
10176140513
10176146678
10176153087
10176159739
10176166636
10176172862
10176177623
10176184581
10176191478
10176198497
10176203868
10176210215
10176215464
10176222483
10176227916
10176237254
10176243357
10176249644
10176256419
10176261058
10176266307
10176273936
10176280772
10176287364
10176294200
10176300852
10176306651
10176313059
10176318797
10176324290
10176332285
10176337657
10176345713
10176351878
10176359568
10176364390
10176370066
10176376597
10176383250
10176390635
10176395396
10176402354
10176408274
10176413706
10176419932
10176427012
10176432078
10176438730
10176445383
10176449167
10176457346
10176464426
10176471201
10176477427
10176483713
10176490854
10176495798
10176503550
10176509897
10176519114
10176526804
10176535166
10176542734
10176548349
10176553904
10176559824
10176567942
10176572824
10176580026
10176586374
10176591623
10176598154
10176604440
10176609506
10176617746
10176623667
10176630808
10176636484
10176642709
10176649851
10176656198
10176662973
10176671823
10176678659
10176683969
10176690500
10176695993
10176702768
10176708688
10176715585
10176723031
10176726938
10176735238
10176740610
10176748361
10176752267
10176763070
10176768869
10176775400
10176780221
10176788095
10176795114
10176801889
10176810312
10176817331
10176824166
10176829538
10176836312
10176841439
10176847970
10176853036
10176861337
10176869149
10176875741
10176880929
10176886972
10176894113
10176899911
10176905587
10176914254
10176920297
10176925179
10176931100
10176937508
10176943063
10176949532
10176955331
10176962777
10176969064
10176974984
10176980904
10176986947
10176992867
10176996346
10177007027
10177012765
10177018685
10177025094
10177031136
10177037301
10177043160
10177049447
10177056893
10177066170
10177071785
10177081612
10177089425
10177097420
10177104683
10177116463
10177121651
10177130135
10177136483
10177143929
10177147713
10177157418
10177162300
10177168648
10177175606
10177182076
10177188484
10177194893
10177202095
10177207649
10177217232
10177225777
10177233101
10177241646
10177248726
10177256783
10177264473
10177271675
10177279121
10177285591
10177292183
10177299019
10177305489
10177311714
10177318428
10177325142
10177331062
10177338386
10177344490
10177351021
10177357124
10177364692
10177370918
10177377510
10177382637
10177388801
10177395881
10177402229
10177407661
10177414497
10177420173
10177429084
10177433296
10177440803
10177447334
10177453926
10177460456
10177470588
10177476142
10177482978
10177488777
10177497077
10177504035
10177508064
10177517585
10177525398
10177532111
10177539008
10177545783
10177553352
10177558540
10177568244
10177574470
10177582526
10177589240
10177596259
10177603461
10177610358
10177617377
10177624396
10177631965
10177639472
10177645942
10177652472
10177660468
10177666938
10177675910
10177682441
10177691047
10177698859
10177706733
10177711493
10177722113
10177727790
10177738288
10177745185
10177754401
10177761176
10177770026
10177777716
10177785224
10177792060
10177798346
10177804267
10177810492
10177816718
10177822821
10177828803
10177835028
10177843024
10177847968
10177855902
10177861029
10177868109
10177873297
10177880438
10177885748
10177894110
10177900397
10177906500
10177912543
10177918890
10177925360
10177931647
10177937994
10177945318
10177951544
10177957831
10177963873
10177970587
10177976690
10177981329
10177989752
10177996405
10178003363
10178009710
10178015936
10178019720
10178027410
10178034613
10178040411
10178046331
10178051886
10178058477
10178064581
10178070440
10178074896
10178082281
10178089300
10178095220
10178101019
10178106634
10178110967
10178117742
10178124578
10178130865
10178136236
10178142461
10178147833
10178154546
10178159429
10178166387
10178173040
10178178594
10178185674
10178190252
10178195928
10178203191
10178207586
10178215642
10178219854
10178226934
10178231817
10178238897
10178244024
10178250860
10178258367
10178264043
10178269597
10178277105
10178283208
10178289800
10178295171
10178301702
10178307378
10178321416
10178326970
10178333440
10178340703
10178347966
10178354497
10178361455
10178367498
10178374272
10178380498
10178385381
10178393376
10178400456
10178407597
10178414189
10178420598
10178427190
10178433659
10178439946
10178446538
10178453496
10178460820
10178467107
10178474126
10178480839
10178486150
10178493108
10178500127
10178506413
10178511845
10178519902
10178525456
10178532963
10178538334
10178545964
10178552128
10178558537
10178565312
10178572026
10178578557
10178585026
10178592106
10178598637
10178606694
10178613957
10178620610
10178626103
10178632817
10178639836
10178646733
10178652104
10178660893
10178667912
10178674443
10178679753
10178686161
10178693302
10178699650
10178706120
10178713566
10178721501
10178727665
10178734135
10178740238
10178746525
10178753788
10178760746
10178766483
10178773441
10178779362
10178784611
10178792179
10178797550
10178806705
10178814213
10178821049
10178827946
10178834965
10178841068
10178846622
10178854618
10178859989
10178867862
10178873356
10178880863
10178888920
10178895450
10178901859
10178908268
10178914981
10178921573
10178929264
10178934635
10178943424
10178951358
10178959293
10178968021
10178975284
10178981143
10178990543
10178998477
10179005618
10179009281
10179018924
10179024356
10179031070
10179037540
10179044132
10179051700
10179058353
10179064822
10179072818
10179079227
10179087039
10179093509
10179101321
10179107730
10179115542
10179123050
10179128360
10179137210
10179143191
10179150027
10179155459
10179163272
10179170413
10179179568
10179185672
10179192386
10179200198
10179206729
10179212100
10179220034
10179227908
10179234378
10179242312
10179249575
10179255496
10179264773
10179270754
10179277957
10179285769
10179294619
10179300601
10179308352
10179316103
10179323672
10179331423
10179338381
10179346255
10179352358
10179361086
10179368472
10179375613
10179383181
10179392580
10179399905
10179405947
10179414614
10179422365
10179430300
10179436159
10179445498
10179451418
10179458986
10179466799
10179475405
10179483339
10179491091
10179496950
10179505861
10179511599
10179521303
10179526735
10179533449
10179540224
10179546877
10179551638
10179559023
10179563845
10179572145
10179577516
10179584657
10179589784
10179597170
10179602480
10179610292
10179614137
10179621828
10179627199
10179636476
10179640077
10179648988
10179657350
10179662477
10179669679
10179676698
10179685426
10179695131
10179702028
10179707765
10179713991
10179721010
10179727052
10179732606
10179738893
10179746339
10179753114
10179759401
10179764894
10179770692
10179777894
10179783632
10179789247
10179794801
10179801210
10179807374
10179812989
10179817933
10179826356
10179831117
10179837220
10179843812
10179850404
10179857545
10179863465
10179869081
10179874940
10179881837
10179886720
10179892823
10179899720
10179904481
10179911561
10179917298
10179922791
10179929688
10179935059
10179941529
10179948121
10179952943
10179960328
10179966981
10179973145
10179979127
10179984803
10179990357
10179996155
10180003419
10180008423
10180016602
10180022828
10180028687
10180034669
10180040711
10180047486
10180054017
10180059937
10180066407
10180073731
10180079041
10180086182
10180091309
10180099427
10180106629
10180113160
10180119385
10180125489
10180131714
10180138977
10180144470
10180151978
10180160095
10180166504
10180172730
10180179444
10180185608
10180192322
10180199341
10180206360
10180211670
10180218994
10180222900
10180232422
10180238525
10180249634
10180256836
10180262451
10180270935
10180278442
10180285095
10180290710
10180298462
10180305664
10180311951
10180319031
10180326111
10180331665
10180338379
10180343689
10180352234
10180358398
10180365356
10180369201
10180377319
10180382690
10180391113
10180397766
10180404235
10180408813
10180417114
10180423461
10180430053
10180436889
10180443420
10180450317
10180456970
10180463195
10180469665
10180476257
10180481079
10180489623
10180494750
10180503173
10180508056
10180515258
10180522277
10180528564
10180533386
10180541564
10180546874
10180554076
10180559570
10180566711
10180572326
10180580382
10180585998
10180594115
10180598022
10180606628
10180616515
10180623595
10180629821
10180635375
10180642150
10180647643
10180657409
10180661193
10180669371
10180677428
10180684935
10180692321
10180699889
10180708434
10180714415
10180722655
10180728575
10180735900
10180741637
10180750365
10180757384
10180767760
10180774291
10180781493
10180787169
10180794432
10180802428
10180807799
10180815001
10180822081
10180830443
10180835814
10180844725
10180850523
10180858519
10180865172
10180872740
10180886229
10180892271
10180901915
10180908507
10180916197
10180922728
10180933043
10180941404
10180950438
10180958555
10180964354
10180973570
10180979002
10180986998
10180993101
10181001524
10181009459
10181016294
10181023924
10181029783
10181037718
10181044432
10181049925
10181058836
10181064878
10181072447
10181077696
10181085386
10181093321
10181101560
10181108030
10181116331
10181122190
10181129575
10181137449
10181145628
10181151487
10181159788
10181167600
10181175779
10181183591
10181190244
10181198179
10181204893
10181212705
10181218259
10181227353
10181234800
10181241575
10181248105
10181254941
10181259824
10181265683
10181273252
10181279783
10181286130
10181292356
10181298825
10181303647
10181310605
10181316953
10181323911
10181330808
10181336667
10181343381
10181350095
10181355832
10181363400
10181368466
10181376523
10181382504
10181388791
10181395383
10181401669
10181407895
10181414121
10181420407
10181426511
10181432919
10181437619
10181444516
10181450742
10181457455
10181463742
10181470456
10181477231
10181483517
10181490414
10181495480
10181501584
10181508237
10181513180
10181521725
10181527585
10181533261
10181537411
10181544552
10181550961
10181557980
10181565854
10181572873
10181580075
10181586728
10181593136
10181598812
10181605099
10181612667
10181618038
10181624508
10181629818
10181636959
10181643246
10181649349
10181655453
10181661556
10181666989
10181673031
10181678585
10181683041
10181690243
10181696346
10181703060
10181710445
10181716427
10181721737
10181727779
10181735043
10181739620
10181746639
10181753109
10181759762
10181764767
10181771725
10181776729
10181784176
10181787655
10181796505
10181800106
10181808407
10181815853
10181822445
10181829159
10181835628
10181841915
10181848568
10181855709
10181860531
10181867855
10181874385
10181880184
10181886654
10181893917
10181902034
10181908382
10181916194
10181922298
10181928279
10181934566
10181938228
10181949520
10181956478
10181964412
10181970882
10181975704
10181983577
10181988399
10181996761
10182002010
10182009883
10182016414
10182022029
10182027461
10182035518
10182042171
10182048701
10182055171
10182061580
10182068416
10182074947
10182080623
10182087092
10182093379
10182099971
10182106257
10182112727
10182119624
10182126094
10182132747
10182139766
10182146602
10182153865
10182160334
10182166682
10182175532
10182181575
10182190181
10182194697
10182206233
10182215266
10182224971
10182231379
10182237910
10182244380
10182250910
10182257624
10182264765
10182270014
10182278620
10182283991
10182290461
10182297419
10182304682
10182310847
10182316706
10182322260
10182330805
10182334834
10182343073
10182348566
10182358149
10182365168
10182371516
10182378168
10182384638
10182390620
10182397089
10182404536
10182411860
10182417780
10182424860
10182430720
10182437800
10182444208
10182449579
10182458124
10182464167
10182471735
10182479242
10182486139
10182493280
10182499994
10182507318
10182514948
10182521662
10182529108
10182535089
10182541071
10182549311
10182555170
10182563104
10182570184
10182577020
10182583673
10182590936
10182598200
10182605035
10182612726
10182621332
10182628900
10182635370
10182642877
10182649347
10182658929
10182666498
10182672540
10182681695
10182687616
10182695245
10182702630
10182709588
10182717218
10182724786
10182733514
10182740533
10182748040
10182755304
10182764398
10182771539
10182777581
10182787164
10182793695
10182803277
10182807977
10182817132
10182827752
10182838494
10182851739
10182858148
10182870599
10182882623
10182892632
10182901544
10182909600
10182915582
10182923638
10182929925
10182940118
10182944390
10182952325
10182957940
10182965203
10182971612
10182977959
10182981621
10182989861
10182996758
10183002740
10183009209
10183016350
10183025689
10183030572
10183038201
10183043145
10183050347
10183053887
10183062554
10183069390
10183075676
10183082817
10183090386
10183096428
10183103508
10183110710
10183115776
10183122185
10183127739
10183132927
10183141350
10183144890
10183155083
10183161370
10183165947
10183173332
10183179802
10183185784
10183190788
10183198601
10183204826
10183212151
10183216911
10183222282
10183228508
10183234428
10183240288
10183247429
10183253288
10183258293
10183263664
10183270988
10183275749
10183281792
10183286674
10183294365
10183301018
10183305473
10183312858
10183317558
10183324516
10183331596
10183337455
10183339225
10183347465
10183354606
10183360466
10183366325
10183371269
10183379387
10183386528
10183392387
10183398490
10183404594
10183411613
10183419731
10183427604
10183436149
10183443656
10183450126
10183456901
10183463920
10183473197
10183480460
10183487418
10183491813
10183498100
10183504569
10183512626
10183517692
10183523734
10183528739
10183537467
10183541434
10183550407
10183554313
10183563956
10183570121
10183576591
10183582755
10183589225
10183596244
10183602897
10183608573
10183615165
10183621818
10183628348
10183635428
10183640311
10183647452
10183654044
10183660758
10183667838
10183674308
10183681388
10183687247
10183694388
10183701590
10183707144
10183714347
10183719901
10183728141
10183734488
10183741080
10183747611
10183754202
10183761160
10183768668
10183775748
10183780814
10183788077
10183794669
10183799368
10183807303
10183814749
10183821219
10183827078
10183833792
10183840445
10183847098
10183853506
10183859976
10183868155
10183873587
10183882620
10183886526
10183894766
10183901541
10183907950
10183915213
10183922171
10183928824
10183934256
10183941336
10183949575
10183956045
10183962942
10183970511
10183978079
10183985830
10183991751
10183997305
10184005300
10184012136
10184019216
10184026113
10184032217
10184038442
10184044424
10184049795
10184056509
10184064626
10184072561
10184083059
10184089895
10184097891
10184105276
10184111196
10184120290
10184126394
10184133413
10184140005
10184146474
10184153127
10184159597
10184164175
10184172048
10184178396
10184185049
10184192983
10184198049
10184205434
10184212758
10184219411
10184227346
10184234548
10184242055
10184249379
10184256459
10184262441
10184269521
10184276235
10184283986
10184291860
10184299062
10184305532
10184312795
10184319875
10184327077
10184334523
10184339955
10184347524
10184354665
10184360951
10184368215
10184376271
10184382253
10184390065
10184398122
10184402699
10184413869
10184420827
10184428456
10184432973
10184442128
10184449574
10184458180
10184466542
10184474599
10184481068
10184488515
10184494008
10184502431
10184510731
10184519093
10184526783
10184532948
10184542653
10184548695
10184557545
10184563527
10184571949
10184580555
10184588002
10184594349
10184603077
10184609242
10184616505
10184622914
10184633106
10184640553
10184648365
10184655445
10184662769
10184669727
10184676441
10184683766
10184688282
10184695362
10184702015
10184708057
10184713123
10184720509
10184726368
10184734364
10184741260
10184748157
10184754871
10184761707
10184768360
10184775379
10184783130
10184790516
10184800464
10184805774
10184812122
10184816578
10184824573
10184832020
10184838855
10184845081
10184851856
10184858265
10184863514
10184869556
10184876331
10184881885
10184888660
10184894458
10184901783
10184907825
10184911243
10184919788
10184923084
10184931568
10184937732
10184943592
10184949390
10184955188
10184960498
10184966113
10184973560
10184979724
10184985034
10184990100
10184996875
10185001697
10185008533
10185013293
10185021594
10185028735
10185033191
10185040698
10185045032
10185051684
10185057788
10185063220
10185069568
10185076098
10185080859
10185088183
10185094165
10185099780
10185105334
10185111743
10185119311
10185123889
10185131518
10185136584
10185142810
10185147693
10185156360
10185162707
10185168505
10185174792
10185181140
10185187854
10185193713
10185200183
10185206652
10185212512
10185220080
10185225512
10185232897
10185238879
10185247546
10185253893
10185258532
10185266467
10185273242
10185278735
10185285571
10185292651
10185299975
10185306506
10185312487
10185318530
10185324877
10185332690
10185339587
10185347155
10185358263
10185360705
10185371020
10185378405
10185385058
10185393603
10185398913
10185407274
10185412279
10185419176
10185425768
10185432543
10185439745
10185447741
10185453417
10185460802
10185466234
10185473864
10185479235
10185486376
10185491808
10185500963
10185508348
10185515001
10185521593
10185527147
10185534532
10185541673
10185548570
10185554125
10185561083
10185566515
10185574449
10185579881
10185587999
10185594286
10185600877
10185604723
10185613329
10185619676
10185626146
10185632555
10185639574
10185646593
10185654100
10185660814
10185667467
10185673997
10185680589
10185686204
10185692979
10185699998
10185707506
10185713365
10185720384
10185726793
10185733934
10185740648
10185746263
10185754808
10185760240
10185768846
10185772752
10185781358
10185788499
10185794908
10185802842
10185807664
10185815538
10185820420
10185827683
10185834825
10185840989
10185848008
10185855943
10185861924
10185868516
10185876328
10185882554
10185890550
10185896958
10185904832
10185912400
10185920213
10185925950
10185933762
10185940171
10185948045
10185955613
10185961716
10185968674
10185974839
10185983384
10185989731
10185999314
10186005967
10186014817
10186021714
10186030930
10186042222
10186049729
10186058091
10186064072
10186071885
10186077927
10186085739
10186091660
10186100022
10186106003
10186113816
10186119797
10186126938
10186134690
10186142868
10186148911
10186157334
10186163315
10186172226
10186176376
10186185715
10186192673
10186199081
10186205124
10186213425
10186219467
10186226669
10186232590
10186240890
10186246811
10186256210
10186263718
10186269943
10186276413
10186285141
10186291855
10186299484
10186307907
10186315963
10186322494
10186330002
10186335800
10186345504
10186352279
10186358993
10186366745
10186375473
10186383956
10186390731
10186396530
10186403976
10186409225
10186416488
10186421920
10186429550
10186436080
10186442123
10186447677
10186453842
10186460922
10186467391
10186472946
10186480392
10186488143
10186491622
10186499496
10186505782
10186511886
10186520553
10186526839
10186533187
10186538192
10186545638
10186549117
10186556686
10186563521
10186569869
10186576278
10186582747
10186588546
10186595016
10186601973
10186607894
10186615218
10186621383
10186627425
10186633651
10186639266
10186646285
10186650618
10186659285
10186664717
10186672286
10186677718
10186685225
10186690474
10186697432
10186702864
10186711409
10186717024
10186722884
10186729781
10186734053
10186740950
10186747237
10186753401
10186759505
10186765303
10186770186
10186777998
10186783492
10186789229
10186792769
10186801253
10186806990
10186812788
10186819624
10186825850
10186831160
10186837813
10186844099
10186850691
10186856856
10186861861
10186869063
10186874617
10186881331
10186887861
10186893843
10186900862
10186905440
10186913069
10186917585
10186924238
10186930647
10186937361
10186944685
10186951033
10186956465
10186964704
10186971296
10186977461
10186983381
10186990278
10186996931
10187003645
10187009748
10187017317
10187023542
10187029890
10187036421
10187044355
10187048811
10187056745
10187062055
10187069380
10187074567
10187082441
10187089033
10187095197
10187101545
10187107954
10187114179
10187120954
10187129743
10187135358
10187142499
10187148969
10187155378
10187161664
10187167890
10187174848
10187182050
10187189435
10187195356
10187203412
10187209699
10187215864
10187222150
10187228986
10187235761
10187242780
10187250226
10187255902
10187264142
10187270124
10187279889
10187287030
10187298261
10187305524
10187311139
10187318891
10187324384
10187331647
10187337079
10187345197
10187352643
10187359418
10187363263
10187371686
10187379132
10187385907
10187392377
10187398724
10187404828
10187411298
10187418378
10187423199
10187430157
10187436688
10187443219
10187449811
10187457074
10187464215
10187470746
10187475751
10187485516
10187491070
10187497479
10187502911
10187510602
10187516034
10187523663
10187529889
10187536663
10187543438
10187549969
10187556317
10187563397
10187570660
10187577984
10187586163
10187593609
10187600628
10187608135
10187614971
10187620159
10187628765
10187634381
10187643658
10187652264
10187659283
10187667339
10187673077
10187681500
10187687664
10187695110
10187702923
10187710064
10187717571
10187724834
10187730205
10187738567
10187743877
10187753094
10187758343
10187766155
10187773845
10187781048
10187786541
10187795696
10187801677
10187809246
10187816997
10187824260
10187832317
10187838604
10187846355
10187853374
10187861492
10187870220
10187876506
10187884746
10187893047
10187901470
10187907573
10187915019
10187922649
10187930400
10187942058
10187949626
10187957439
10187968303
10187975383
10187983806
10187990459
10187999004
10188007854
10188016032
10188020183
10188032634
10188040202
10188045512
10188054729
10188060405
10188068156
10188075419
10188081340
10188086589
10188094401
10188098491
10188108561
10188114665
10188120707
10188125651
10188132121
10188139445
10188146037
10188153056
10188160319
10188166911
10188170695
10188178752
10188183024
10188191386
10188198527
10188206828
10188212626
10188219584
10188225810
10188232646
10188238139
10188244853
10188250956
10188257731
10188263773
10188268961
10188276347
10188281779
10188289408
10188295512
10188301066
10188308390
10188314249
10188321146
10188327067
10188333720
10188336954
10188344889
10188352091
10188357279
10188361979
10188366068
10188374308
10188380045
10188384379
10188392069
10188398295
10188404642
10188411417
10188416300
10188421854
10188428995
10188434244
10188440653
10188445780
10188452555
10188457499
10188464701
10188468851
10188477335
10188482279
10188487589
10188494974
10188501688
10188507669
10188517618
10188525064
10188533487
10188541605
10188548990
10188555521
10188564005
10188571207
10188576273
10188585123
10188590067
10188597269
10188603250
10188609537
10188613382
10188622232
10188628152
10188634012
10188641702
10188648599
10188655191
10188662576
10188669656
10188674600
10188681985
10188687600
10188694192
10188702371
10188709451
10188716714
10188722207
10188729226
10188736184
10188743264
10188749978
10188757486
10188763467
10188770974
10188777871
10188780984
10188790750
10188798318
10188803384
10188810952
10188816812
10188823403
10188830239
10188838906
10188845437
10188852578
10188860696
10188866616
10188875649
10188880349
10188887978
10188893716
10188900185
10188909463
10188914895
10188921975
10188932900
10188939675
10188944863
10188951333
10188958352
10188965249
10188973183
10188978982
10188985512
10188992653
10188998696
10189007119
10189012002
10189023171
10189030312
10189038002
10189045449
10189052651
10189058693
10189069374
10189076638
10189085121
10189092018
10189099953
10189108376
10189116127
10189121498
10189128884
10189135353
10189139992
10189150551
10189157814
10189162209
10189170326
10189176674
10189183083
10189190041
10189197853
10189203712
10189210548
10189218117
10189224281
10189230446
10189237099
10189246254
10189254433
10189260109
10189269264
10189274635
10189283729
10189291176
10189297157
10189303749
10189312416
10189317360
10189326759
10189333839
10189341102
10189349220
10189357460
10189363319
10189371620
10189378822
10189388710
10189393592
10189402687
10189410987
10189418373
10189426429
10189434974
10189442115
10189449256
10189456458
10189464942
10189472144
10189477821
10189488746
10189495765
10189501990
10189509742
10189515784
10189525306
10189532264
10189542090
10189549476
10189557288
10189566932
10189572120
10189582618
10189591773
10189597632
10189605872
10189614539
10189623267
10189628394
10189637854
10189645484
10189651160
10189657935
10189664649
10189671363
10189678137
10189686011
10189693946
10189699439
10189710364
10189715918
10189720679
10189728125
10189734778
10189740271
10189747412
10189753516
10189760413
10189766516
10189772925
10189778601
10189785376
10189790808
10189797034
10189802344
10189810095
10189816382
10189823279
10189828467
10189834265
10189841040
10189846655
10189854468
10189859350
10189865576
10189872534
10189877295
10189883703
10189889502
10189896521
10189901953
10189907629
10189914160
10189919897
10189924841
10189931372
10189937170
10189944311
10189949194
10189953649
10189961828
10189968054
10189974340
10189978918
10189984045
10189990881
10189996374
10190000891
10190008947
10190014929
10190020849
10190027807
10190032934
10190039526
10190047033
10190052465
10190057653
10190064672
10190070959
10190078283
10190084509
10190090551
10190096777
10190101965
10190107397
10190116247
10190122900
10190129003
10190136083
10190141881
10190148229
10190158788
10190165136
10190172216
10190183385
10190191381
10190196203
10190206212
10190213109
10190220311
10190226354
10190231237
10190239843
10190246068
10190252660
10190260167
10190267369
10190273473
10190280004
10190285558
10190291722
10190300389
10190306798
10190313146
10190319310
10190326207
10190332311
10190336888
10190345555
10190352086
10190358556
10190365575
10190369115
10190380406
10190388097
10190394139
10190399693
10190408177
10190414403
10190420323
10190428075
10190433140
10190442174
10190448277
10190454930
10190464512
10190470677
10190477269
10190484349
10190491429
10190497838
10190505406
10190513218
10190521031
10190527684
10190534153
10190540989
10190548375
10190554234
10190560887
10190568882
10190575779
10190582554
10190588230
10190597874
10190606602
10190612278
10190618443
10190626072
10190630955
10190639195
10190645420
10190654697
10190661045
10190666599
10190675083
10190682041
10190688206
10190695774
10190701023
10190712315
10190720615
10190727573
10190736301
10190742649
10190752781
10190760166
10190768711
10190776584
10190783542
10190795444
10190803562
10190809299
10190817173
10190823215
10190831577
10190838108
10190846286
10190851780
10190859714
10190866489
10190872959
10190880649
10190885715
10190895420
10190902439
10190909336
10190915073
10190920200
10190930087
10190937839
10190944492
10190954013
10190960971
10190967807
10190974704
10190982394
10190991916
10190996005
10191005344
10191013461
10191019626
10191029758
10191036532
10191043857
10191052890
10191059299
10191069430
10191077182
10191084994
10191092807
10191101169
10191106845
10191114108
10191119174
10191126986
10191132663
10191141024
10191146212
10191152194
10191158358
10191163546
10191171786
10191180087
10191186740
10191192233
10191198641
10191204135
10191212008
10191217440
10191224215
10191230013
10191236727
10191244845
10191251070
10191258028
10191265536
10191271578
10191277010
10191282504
10191288241
10191297274
10191302828
10191311678
10191318514
10191331393
10191337862
10191344332
10191351534
10191356905
10191363619
10191369723
10191375521
10191384432
10191390719
10191396761
10191401583
10191407442
10191413424
10191419527
10191426180
10191431978
10191437960
10191443026
10191450533
10191455965
10191462618
10191469820
10191476473
10191481600
10191487032
10191491548
10191499056
10191504366
10191510835
10191517915
10191524141
10191528780
10191537752
10191544893
10191550203
10191557527
10191562654
10191569673
10191576204
10191585725
10191591951
10191598665
10191604646
10191611238
10191616426
10191624483
10191630220
10191637544
10191643037
10191649202
10191657014
10191664216
10191668489
10191677705
10191685579
10191692170
