9604574777
9604580758
9604585458
9604591012
9604596444
9604601571
9604606454
9604612130
9604616281
9604624337
9604630197
9604637338
9604643075
9604650216
9604656503
9604665353
9604671273
9604677804
9604683297
9604689950
9604696969
9604703317
9604709664
9604715768
9604722787
9604728463
9604736581
9604741769
9604750314
9604756966
9604762948
9604769906
9604778268
9604784188
9604793343
9604801034
9604806649
9604815011
9604823861
9604829354
9604838814
9604844674
9604853951
9604860238
9604867196
9604876900
9604882515
9604889962
9604896004
9604902535
9604911202
9604918709
9604925850
9604934212
9604940438
9604947518
9604956917
9604963692
9604970711
9604979866
9604986702
9604993538
9605000679
9605009102
9605016304
9605022713
9605031014
9605038521
9605046700
9605055061
9605063728
9605072578
9605079658
9605087349
9605095955
9605101814
9605109688
9605118965
9605124946
9605133247
9605142219
9605147407
9605157417
9605165474
9605173713
9605182380
9605189888
9605196357
9605203193
9605212715
9605222297
9605230720
9605239204
9605245307
9605254646
9605263252
9605271064
9605277900
9605286689
9605293830
9605301887
9605307990
9605316047
9605323982
9605329658
9605338447
9605346809
9605354011
9605362312
9605370551
9605377204
9605385932
9605391791
9605399604
9605407416
9605416450
9605423591
9605430060
9605438666
9605446479
9605453132
9605459784
9605468024
9605474921
9605482978
9605490851
9605496894
9605507575
9605513556
9605521369
9605530402
9605537726
9605546393
9605553717
9605561591
9605568610
9605576178
9605584113
9605593268
9605600043
9605608649
9605615790
9605624213
9605631842
9605638495
9605647284
9605656439
9605664191
9605673102
9605680121
9605688177
9605697028
9605706244
9605714239
9605721686
9605729498
9605736273
9605743902
9605750311
9605759405
9605767218
9605776312
9605785345
9605790655
9605798651
9605804449
9605813848
9605823553
9605831305
9605838385
9605846075
9605853704
9605860235
9605869268
9605876409
9605889471
9605898321
9605904363
9605913519
9605922735
9605932012
9605943243
9605952764
9605959478
9605967718
9605974065
9605981756
9605991460
9605998052
9606006597
9606014104
9606022588
9606029790
9606037115
9606044439
9606051580
9606060552
9606068853
9606077215
9606084905
9606090337
9606098516
9606107183
9606113103
9606120183
9606129094
9606136907
9606143743
9606151921
9606160588
9606167790
9606174382
9606185613
9606192632
9606201482
9606210088
9606215398
9606224004
9606233647
9606239568
9606247929
9606254460
9606262578
9606270818
9606275761
9606285893
9606292485
9606300725
9606305974
9606315007
9606326420
9606333134
9606341984
9606348942
9606358647
9606366948
9606376225
9606384709
9606393254
9606400029
9606406804
9606415776
9606424260
9606431767
9606441655
9606448979
9606458195
9606465519
9606472660
9606480778
9606488285
9606495915
9606503544
9606511418
9606519657
9606528080
9606536808
9606545109
9606553532
9606564884
9606574161
9606580265
9606590214
9606596256
9606604679
9606612553
9606619999
9606628116
9606637516
9606646854
9606653263
9606660404
9606668583
9606675052
9606680729
9606691288
9606698551
9606706180
9606714420
9606723880
9606729373
9606739688
9606747074
9606754947
9606762454
9606771610
9606781253
9606790958
9606797244
9606805545
9606812808
9606820377
9606828311
9606835391
9606845340
9606852664
9606858890
9606864505
9606869144
9606876163
9606882388
9606889651
9606897464
9606902408
9606910220
9606913211
9606921756
9606928042
9606936709
9606942691
9606948245
9606955081
9606963260
9606969973
9606978030
9606984744
9606991641
9606997073
9607004214
9607010562
9607015139
9607024722
9607031008
9607038333
9607044497
9607051394
9607057192
9607063113
9607071963
9607076968
9607083560
9607089785
9607096804
9607101992
9607108950
9607114382
9607122683
9607130801
9607140810
9607148745
9607157900
9607168764
9607177004
9607184878
9607193423
9607201174
9607208071
9607215761
9607223879
9607230898
9607237856
9607243166
9607249453
9607257082
9607264528
9607269716
9607278933
9607284060
9607290895
9607298464
9607305605
9607310732
9607316957
9607324709
9607329836
9607337709
9607343813
9607351625
9607358522
9607365114
9607372927
9607379396
9607387148
9607393617
9607401491
9607408205
9607415102
9607422243
9607428835
9607436098
9607444337
9607451357
9607457582
9607464723
9607472414
9607479616
9607485353
9607492555
9607500185
9607506105
9607514345
9607521791
9607529420
9607534791
9607543153
9607549562
9607556154
9607563173
9607571290
9607578126
9607584596
9607591127
9607599366
9607606324
9607612611
9607620301
9607628419
9607636048
9607641603
9607649476
9607657411
9607662782
9607671937
9607680116
9607686463
9607694947
9607702882
9607710389
9607718568
9607724061
9607730042
9607740113
9607746156
9607755555
9607761719
9607769715
9607778077
9607783936
9607793702
9607801575
9607809510
9607817139
9607824402
9607832032
9607838196
9607846924
9607856751
9607866333
9607873475
9607880127
9607889588
9607895203
9607904602
9607912659
9607922608
9607931031
9607936951
9607945862
9607951660
9607960327
9607965943
9607974121
9607980713
9607988770
9607995178
9608003174
9608009949
9608018189
9608025208
9608031616
9608040161
9608047241
9608055176
9608062378
9608069397
9608075622
9608082764
9608088928
9608094177
9608105102
9608113464
9608119140
9608125793
9608133423
9608141418
9608146240
9608154297
9608159790
9608165283
9608171631
9608177734
9608183471
9608190307
9608195495
9608201110
9608208129
9608214538
9608220214
9608226379
9608233703
9608240051
9608245361
9608251403
9608257080
9608262695
9608267944
9608274230
9608280090
9608286376
9608292724
9608299621
9608305785
9608311889
9608317748
9608323669
9608329894
9608333617
9608341125
9608347655
9608353149
9608358459
9608363647
9608370483
9608376586
9608382201
9608388244
9608394591
9608400878
9608406432
9608412047
9608418334
9608424315
9608432006
9608437011
9608444457
9608449889
9608456664
9608462767
9608471679
9608478209
9608484923
9608490355
9608496154
9608502318
9608508910
9608515013
9608519652
9608526671
9608533812
9608539733
9608546080
9608552672
9608559081
9608565428
9608572264
9608579161
9608587584
9608592040
9608598631
9608604674
9608611266
9608617003
9608623290
9608630370
9608635680
9608641905
9608646727
9608653502
9608663512
9608669005
9608675108
9608681517
9608688048
9608694884
9608701597
9608707335
9608714171
9608718565
9608725401
9608730894
9608737242
9608744871
9608749937
9608757383
9608762877
9608769102
9608777403
9608783079
9608788878
9608796873
9608804258
9608809385
9608815855
9608821592
9608828184
9608835935
9608841978
9608848204
9608855100
9608861509
9608869261
9608875791
9608881101
9608887449
9608895078
9608899595
9608908933
9608916746
9608922178
9608927427
9608932859
9608940733
9608947324
9608955442
9608962644
9608968198
9608975645
9608982297
9608990110
9608997190
9609003477
9609012266
9609017759
9609024717
9609031614
9609038450
9609044614
9609051084
9609058835
9609065488
9609071103
9609078855
9609085324
9609090390
9609096433
9609104367
9609110044
9609116208
9609124570
9609129453
9609136594
9609143186
9609149472
9609157712
9609163449
9609171018
9609179379
9609183774
9609192807
9609201047
9609207394
9609213071
9609219907
9609227292
9609232358
9609239438
9609248227
9609254208
9609261288
9609269406
9609274533
9609283078
9609289670
9609295712
9609303219
9609311093
9609319455
9609327511
9609335324
9609339901
9609347836
9609357541
9609363278
9609373593
9609380734
9609388791
9609394345
9609401791
9609410214
9609416745
9609424984
9609431271
9609438412
9609447384
9609452450
9609460812
9609469479
9609475948
9609484310
9609489742
9609498531
9609506771
9609515926
9609524288
9609532711
9609540768
9609548397
9609555843
9609566769
9609573238
9609586727
9609594234
9609600643
9609606258
9609612423
9609620968
9609625362
9609632747
9609637203
9609643368
9609648678
9609654842
9609660579
9609667782
9609672664
9609679012
9609684139
9609690792
9609695980
9609703914
9609711849
9609717220
9609724300
9609728206
9609734554
9609741939
9609747249
9609755184
9609757991
9609766780
9609770687
9609776241
9609785030
9609792598
9609798457
9609804439
9609809322
9609815059
9609822688
9609828120
9609834834
9609840022
9609846004
9609850398
9609855769
9609862727
9609868831
9609873042
9609877742
9609884273
9609889094
9609894282
9609901607
9609907588
9609912349
9609919063
9609924678
9609929072
9609934810
9609940425
9609947383
9609951716
9609956477
9609962092
9609968623
9609975520
9609981746
9609986445
9609991755
9609998286
9610004267
9610011348
9610018306
9610023555
9610028254
9610034541
9610040278
9610048457
9610055232
9610064631
9610070796
9610078486
9610084834
9610090693
9610097956
9610103938
9610110346
9610114253
9610122065
9610129267
9610135371
9610142695
9610148554
9610154963
9610160761
9610166621
9610173456
9610180048
9610185786
9610193720
9610199518
9610207392
9610215571
9610222651
9610227045
9610235041
9610240595
9610245905
9610252375
9610258905
9610266230
9610271845
9610278193
9610284174
9610290277
9610297235
9610303095
9610308832
9610315973
9610322504
9610328424
9610335138
9610341913
9610348932
9610354730
9610361505
9610368830
9610374750
9610380975
9610387811
9610393549
9610399896
9610406732
9610413446
9610420953
9610429315
9610433771
9610439874
9610445917
9610452936
9610460992
9610468622
9610475519
9610481927
9610488824
9610496820
9610501642
9610508478
9610515130
9610522394
9610528985
9610534662
9610542352
9610549127
9610558526
9610564264
9610570855
9610578424
9610587213
9610591912
9610600885
9610608087
9610615838
9610624993
9610630792
9610637506
9610643426
9610649957
9610656915
9610663018
9610669671
9610675225
9610681024
9610688836
9610697259
9610703545
9610710626
9610717400
9610723870
9610732110
9610738946
9610745660
9610752679
9610759270
9610766289
9610773431
9610780450
9610784905
9610791680
9610800408
9610805962
9610813347
9610822197
9610829705
9610835198
9610842522
9610849358
9610857781
9610864739
9610873162
9610880059
9610887322
9610895256
9610903130
9610909539
9610913445
9610925835
9610934563
9610940422
9610948418
9610954949
9610961907
9610968681
9610976128
9610984429
9610993218
9611000298
9611007134
9611013969
9611019951
9611026970
9611035576
9611042595
9611049797
9611055901
9611064567
9611075188
9611080803
9611086906
9611094780
9611101433
9611107475
9611114921
9611122001
9611126762
9611132622
9611138420
9611145256
9611152336
9611158867
9611166008
9611173088
9611180900
9611187675
9611193718
9611201957
9611209831
9611214103
9611220512
9611227104
9611233268
9611238700
9611243339
9611250785
9611257011
9611262626
9611267875
9611273918
9611279838
9611284171
9611293083
9611298698
9611303947
9611309440
9611314811
9611318839
9611325248
9611330741
9611335990
9611341972
9611348197
9611352897
9611360099
9611365043
9611372062
9611376456
9611383048
9611388785
9611393241
9611400260
9611405631
9611411063
9611418570
9611424491
9611430900
9611435355
9611441214
9611446647
9611451529
9611457877
9611463675
9611469840
9611477652
9611483268
9611489188
9611494681
9611500846
9611505728
9611512809
9611518729
9611524039
9611531363
9611535941
9611543143
9611551383
9611558768
9611564261
9611570670
9611577139
9611584036
9611589163
9611595755
9611602408
9611609732
9611615652
9611622183
9611628409
9611637991
9611644095
9611651968
9611659048
9611664603
9611671927
9611679861
9611685110
9611694571
9611704214
9611711233
9611718374
9611725271
9611732412
9611738089
9611744253
9611749807
9611756582
9611764090
9611771109
9611775991
9611782461
9611788259
9611795278
9611802114
9611809500
9611816763
9611821096
9611828848
9611834219
9611840933
9611850271
9611854788
9611862539
9611869009
9611878469
9611884817
9611892324
9611898306
9611905630
9611911794
9611918508
9611925283
9611931509
9611937856
9611945241
9611950002
9611957143
9611963613
9611969472
9611974355
9611981679
9611988332
9611994436
9612000600
9612007619
9612013845
9612020437
9612028371
9612033986
9612040639
9612046743
9612051137
9612059926
9612065847
9612072866
9612081105
9612087270
9612092763
9612099294
9612108815
9612114797
9612122060
9612127553
9612134633
9612141835
9612149343
9612155507
9612162160
9612168874
9612177297
9612183156
9612191274
9612200551
9612210133
9612217580
9612225026
9612231984
9612240102
9612248341
9612256032
9612262440
9612270375
9612277455
9612283375
9612291615
9612299306
9612305470
9612311940
9612319081
9612326649
9612332509
9612340016
9612347218
9612354542
9612361866
9612368946
9612375050
9612380665
9612390248
9612397450
9612404652
9612411854
9612417164
9612424427
9612434498
9612440724
9612448353
9612454456
9612464588
9612471058
9612475880
9612485584
9612493458
9612499744
9612507191
9612513721
9612520741
9612528431
9612536182
9612543384
9612548389
9612554066
9612560413
9612565479
9612572071
9612578113
9612585621
9612591175
9612597034
9612601917
9612608631
9612614368
9612620411
9612625843
9612631519
9612637500
9612642872
9612649158
9612654590
9612660938
9612666492
9612672535
9612676868
9612684375
9612690845
9612696643
9612702747
9612708423
9612714405
9612719409
9612724903
9612732776
9612740283
9612745227
9612750720
9612757678
9612762988
9612770618
9612778003
9612784412
9612790515
9612795947
9612801685
9612806689
9612813098
9612819385
9612824084
9612829700
9612835498
9612841968
9612847644
9612853320
9612857654
9612865283
9612871509
9612876819
9612882922
9612890063
9612896106
9612902087
9612907092
9612912890
9612919299
9612926257
9612932910
9612937610
9612945300
9612951770
9612957202
9612963794
9612971850
9612978503
9612984362
9612989794
9612996386
9613003283
9613008837
9613016101
9613022936
9613027941
9613034411
9613041552
9613048632
9613054431
9613061511
9613068224
9613074450
9613080554
9613088000
9613095141
9613100024
9613107165
9613113940
9613120837
9613126086
9613132616
9613139513
9613147021
9613152758
9613159716
9613164782
9613172289
9613179613
9613187609
9613193407
9613201464
9613208117
9613212755
9613219042
9613225695
9613233141
9613237902
9613244433
9613251635
9613258165
9613265062
9613271776
9613277575
9613284471
9613291979
9613299181
9613304674
9613314073
9613322069
9613328966
9613335985
9613341295
9613347582
9613354845
9613361070
9613366686
9613373033
9613380174
9613387315
9613392137
9613399095
9613406114
9613413194
9613419115
9613426805
9613432298
9613438402
9613444871
9613450975
9613458238
9613463792
9613469896
9613477647
9613484239
9613489915
9613497423
9613503160
9613509446
9613516710
9613523240
9613530198
9613535569
9613542527
9613548082
9613555040
9613561021
9613567369
9613574205
9613578904
9613585801
9613592027
9613598130
9613604478
9613610643
9613618150
9613624925
9613630235
9613637376
9613644212
9613650987
9613657823
9613663316
9613671189
9613678941
9613685960
9613693101
9613698350
9613704209
9613712022
9613718430
9613726487
9613733628
9613740647
9613747361
9613752549
9613759324
9613767197
9613774338
9613780198
9613789292
9613794968
9613801377
9613809983
9613816941
9613826401
9613832261
9613841843
9613847336
9613856430
9613863388
9613870102
9613877182
9613884384
9613890732
9613897934
9613903916
9613914536
9613921311
9613928696
9613935471
9613943588
9613950791
9613958542
9613967392
9613978561
9613987167
9613993637
9614001633
9614008591
9614015182
9614022018
9614030746
9614036667
9614044296
9614050339
9614057358
9614063400
9614069504
9614078049
9614083603
9614090561
9614098190
9614105270
9614112777
9614119735
9614126510
9614132797
9614138229
9614145553
9614150558
9614157882
9614164230
9614169601
9614174728
9614182052
9614188217
9614194808
9614200790
9614206100
9614213180
9614218734
9614225021
9614231979
9614269943
9614276290
9614284103
9614290145
9614296493
9614302657
9614307540
9614313461
9614319930
9614325484
9614331100
9614337936
9614343001
9614349227
9614355025
9614360396
9614366561
9614372664
9614377975
9614380904
9614387740
9614394271
9614400008
9614406661
9614411727
9614417647
9614423507
9614428206
9614436324
9614442000
9614447371
9614452315
9614459029
9614465560
9614470565
9614476363
9614482589
9614488204
9614494429
9614499068
9614505355
9614511275
9614516951
9614523665
9614527938
9614535689
9614545943
9614550398
9614558943
9614563887
9614572798
9614578108
9614588423
9614594038
9614600081
9614607039
9614611678
9614618574
9614623457
9614630415
9614635298
9614642317
9614647932
9614654402
9614659102
9614667219
9614674666
9614679060
9614686629
9614693159
9614699324
9614705000
9614712568
9614720625
9614726301
9614733503
9614739241
9614744917
9614752180
9614757490
9614764631
9614770002
9614776838
9614783796
9614790144
9614796675
9614801374
9614808699
9614815046
9614821089
9614825910
9614834699
9614839521
9614846052
9614853498
9614859846
9614865827
9614871931
9614878828
9614884931
9614890180
9614898359
9614904279
9614910200
9614917768
9614923811
9614930158
9614936079
9614943403
9614948835
9614954450
9614961957
9614968549
9614974164
9614980756
9614987836
9614993574
9614999067
9615005231
9615012189
9615018293
9615025251
9615030622
9615037702
9615043317
9615050336
9615057111
9615061933
9615070172
9615076520
9615082379
9615087873
9615095197
9615099835
9615107526
9615115460
9615121686
9615127789
9615132489
9615141278
9615148419
9615155255
9615160687
9615170026
9615176007
9615184369
9615191937
9615200421
9615206097
9615213238
9615218549
9615225323
9615233014
9615237714
9615246075
9615250836
9615258038
9615265179
9615271283
9615274518
9615284161
9615290143
9615296124
9615301495
9615307416
9615314557
9615320782
9615327069
9615335614
9615341473
9615347760
9615353436
9615359845
9615366803
9615373394
9615378887
9615386883
9615392010
9615399761
9615405133
9615411297
9615418499
9615424908
9615430950
9615437115
9615442852
9615450726
9615456097
9615462505
9615471844
9615479168
9615485516
9615493328
9615500713
9615507793
9615515118
9615522015
9615528912
9615535931
9615546062
9615553631
9615559063
9615565777
9615573345
9615580120
9615585979
9615594341
9615600078
9615607403
9615614422
9615621502
9615626812
9615633709
9615640300
9615649273
9615656719
9615662395
9615668560
9615675029
9615698406
9615705486
9615714031
9615719768
9615727580
9615732341
9615740764
9615745952
9615754497
9615761760
9615768108
9615776592
9615782817
9615790691
9615795207
9615804301
9615809367
9615816814
9615823283
9615828593
9615835368
9615842509
9615847880
9615855449
9615864116
9615869365
9615877177
9615881633
9615888102
9615894511
9615899882
9615904826
9615913066
9615918132
9615923503
9615929789
9615935038
9615940776
9615946330
9615952189
9615959330
9615964640
9615970866
9615975199
9615981425
9615986552
9615992961
9615999430
9616005351
9616009806
9616015971
9616022624
9616026469
9616033549
9616039103
9616045756
9616049906
9616056071
9616060648
9616066447
9616071085
9616079752
9616085734
9616092387
9616097758
9616102457
9616108805
9616114542
9616119059
9616125590
9616131998
9616136515
9616142435
9616147990
9616153483
9616159525
9616164225
9616172220
9616178263
9616184549
9616189615
9616196024
9616202616
9616207255
9616214945
9616220804
9616226175
9616233377
9616238077
9616243631
9616249735
9616255777
9616262552
9616268290
9616273783
9616280069
9616284525
9616290995
9616295816
9616304849
9616310465
9616315531
9616320902
9616327982
9616332987
9616340311
9616347208
9616352701
9616358926
9616365518
9616373209
9616378458
9616387613
9616394632
9616403055
9616408060
9616415872
9616424295
9616429666
9616436746
9616443826
9616450418
9616454629
9616462808
9616469705
9616474038
9616482034
9616488626
9616500223
9616506082
9616515359
9616522073
9616528970
9616533975
9616540811
9616546853
9616553384
9616559365
9616565957
9616571389
9616575662
9616583352
9616589334
9616597634
9616602639
9616609719
9616615640
9616620706
9616626199
9616631753
9616638528
9616645730
9616651101
9616657693
9616664224
9616670205
9616675881
9616681985
9616689492
9616695290
9616700845
9616707070
9616713296
9616718667
9616724282
9616730752
9616737832
9616744179
9616749367
9616756325
9616761452
9616766823
9616773842
9616780556
9616787026
9616793740
9616800759
9616806374
9616812539
9616818276
9616824746
9616832009
9616839211
9616844704
9616850808
9616857949
9616863869
9616869484
9616877114
9616884621
9616889260
9616896523
9616902443
9616909645
9616918495
9616926796
9616933998
9616941017
9616948647
9616955605
9616961220
9616967018
9616974770
9616981972
9616989235
9616996315
9617004921
9617017616
9617024086
9617034584
9617046425
9617054481
9617061500
9617069069
9617074867
9617081459
9617089149
9617097023
9617103004
9617109169
9617117042
9617121986
9617130531
9617137245
9617143470
9617150367
9617158485
9617165077
9617171180
9617176979
9617185340
9617190650
9617197425
9617203346
9617211769
9617218971
9617225135
9617232643
9617239356
9617245521
9617254981
9617261024
9617268409
9617276466
9617283912
9617291541
9617297706
9617303992
9617313270
9617322303
9617331092
9617337501
9617343970
9617351844
9617357764
9617366736
9617374061
9617380774
9617387061
9617396094
9617401648
9617408606
9617416602
9617422034
9617427405
9617434729
9617439856
9617447364
9617454016
9617459571
9617465369
9617472205
9617478491
9617484778
9617491248
9617497840
9617503821
9617508460
9617514990
9617521399
9617527197
9617533728
9617540869
9617546179
9617552161
9617558081
9617565405
9617571509
9617578406
9617583411
9617590186
9617596350
9617602026
9617607397
9617613074
9617618445
9617624426
9617631933
9617637427
9617642493
9617648108
9617654638
9617663305
9617670569
9617676245
9617685827
9617692358
9617699072
9617705481
9617709936
9617717627
9617722815
9617728491
9617735144
9617739843
9617745092
9617751501
9617758276
9617764074
9617769628
9617773962
9617781347
9617785864
9617792578
9617798437
9617804113
9617810339
9617815527
9617821447
9617827307
9617834936
9617841100
9617846838
9617853429
9617859716
9617865453
9617872839
9617881139
9617886816
9617892675
9617899206
9617905065
9617911840
9617920385
9617926183
9617931798
9617939001
9617944677
9617952123
9617957860
9617965001
9617972692
9617979101
9617983495
9617991308
9617998449
9618005224
9618009923
9618016393
9618022924
9618030553
9618037877
9618044286
9618051366
9618056859
9618063878
9618069249
9618076879
9618082799
9618091283
9618096898
9618103978
9618109899
9618116368
9618123082
9618130650
9618136083
9618142003
9618148534
9618155553
9618162450
9618168126
9618176488
9618185643
9618192357
9618199681
9618207738
9618213780
9618222081
9618229344
9618234471
9618241612
9618248509
9618254613
9618259495
9618267735
9618275303
9618281468
9618287327
9618293553
9618298253
9618305760
9618312352
9618318760
9618325535
9618331517
9618337010
9618344700
9618349522
9618357090
9618363987
9618369480
9618374851
9618382420
9618387852
9618395542
9618401280
9618408360
9618414158
9618420689
9618428318
9618435337
9618443394
9618448277
9618455967
9618460728
9618467564
9618474644
9618482578
9618488193
9618494236
9618501316
9618507358
9618516880
9618524082
9618529758
9618537510
9618546177
9618551548
9618559177
9618566623
9618573215
9618578525
9618587497
9618594761
9618601658
9618606907
9618614414
9618621799
9618628696
9618634800
9618644138
9618651401
9618658176
9618664707
9618671360
9618677463
9618683933
9618691074
9618699314
9618706272
9618714145
9618719943
9618727878
9618733249
9618741916
9618749240
9618757785
9618764804
9618770541
9618777621
9618783115
9618791171
9618799045
9618808139
9618813937
9618821323
9618828891
9618835727
9618843661
9618851413
9618855624
9618871798
9618879977
9618890353
9618895846
9618905795
9618913730
9618920810
9618928988
9618934359
9618942050
9618947360
9618955111
9618960421
9618967990
9618975192
9618983370
9618989047
9618997470
9619003146
9619011447
9619018832
9619024630
9619031893
9619036837
9619044344
9619050631
9619057528
9619063998
9619070223
9619076449
9619081271
9619090792
9619095492
9619102267
9619107027
9619114046
9619121249
9619127047
9619134066
9619139925
9619144869
9619151644
9619156710
9619162142
9619167635
9619174288
9619181063
9619186068
9619192232
9619199312
9619206270
9619212801
9619218721
9619223543
9619230745
9619236849
9619242769
9619249788
9619255831
9619261324
9619268587
9619274385
9619280367
9619285860
9619292757
9619298128
9619304231
9619309541
9619315767
9619322176
9619326265
9619333162
9619338045
9619344087
9619346712
9619354463
9619359285
9619365755
9619371309
9619377412
9619385103
9619391389
9619396211
9619403535
9619409700
9619416231
9619421052
9619427156
9619432649
9619438997
9619446382
9619451814
9619457490
9619463472
9619471284
9619476899
9619484163
9619490327
9619500276
9619507417
9619513520
9619520051
9619524507
9619531343
9619537629
9619543550
9619549897
9619556611
9619562043
9619568147
9619574250
9619580476
9619585847
9619593049
9619598542
9619605439
9619610993
9619617890
9619623383
9619630341
9619637299
9619643464
9619650605
9619657746
9619662507
9619670319
9619675202
9619683015
9619689362
9619693879
9619700837
9619708161
9619713166
9619719575
9619726899
9619734040
9619740937
9619747162
9619753815
9619759919
9619766327
9619772431
9619778962
9619786225
9619791291
9619799042
9619804535
9619812409
9619817780
9619824555
9619830658
9619837189
9619845246
9619850678
9619857148
9619864411
9619870270
9619878815
9619885773
9619891998
9619896820
9619902558
9619910126
9619917511
9619924835
9619932221
9619939484
9619946564
9619950714
9619957916
9619964874
9619969696
9619977692
9619985077
9619991241
9619997955
9620004059
9620010528
9620016693
9620023529
9620030792
9620036896
9620043670
9620050506
9620055755
9620063873
9620072113
9620078949
9620085479
9620092315
9620100555
9620107147
9620112762
9620121002
9620127105
9620133087
9620140838
9620146514
9620153717
9620159332
9620166290
9620172027
9620179046
9620186248
9620192169
9620199249
9620206451
9620212798
9620219146
9620226287
9620232391
9620239227
9620245818
9620253570
9620259551
9620266387
9620273650
9620280120
9620287505
9620295257
9620302398
9620310515
9620317840
9620324370
9620331695
9620340240
9620347320
9620353667
9620361114
9620366973
9620376006
9620381621
9620389190
9620394927
9620403899
9620409514
9620418731
9620424956
9620432097
9620441436
9620447417
9620456999
9620464385
9620473784
9620481719
9620489104
9620497161
9620504302
9620508391
9620518767
9620527983
9620535918
9620543181
9620550993
9620557463
9620566313
9620572844
9620580107
9620589445
9620595610
9620605009
9620611113
9620620451
9620625639
9620635710
9620641508
9620649565
9620658842
9620666777
9620674223
9620682097
9620689116
9620696989
9620703215
9620710112
9620719389
9620727873
9620735868
9620742399
9620748320
9620755278
9620762846
9620768461
9620775541
9620783476
9620788114
9620795439
9620801847
9620808500
9620813688
9620821317
9620828764
9620836332
9620843168
9620849577
9620854276
9620861234
9620867887
9620873808
9620881010
9620888395
9620893400
9620900785
9620906950
9620913846
9620919157
9620926298
9620931547
9620938321
9620945218
9620949796
9620957609
9620962308
9620969449
9620974149
9620981717
9620987943
9620993863
9621001188
9621006437
9621010648
9621017423
9621024137
9621030301
9621034452
9621041043
9621047696
9621051908
9621058927
9621066068
9621071439
9621077725
9621082730
9621088773
9621094876
9621100125
9621106351
9621112393
9621117948
9621123807
9621128140
9621135770
9621140042
9621147244
9621152860
9621158109
9621163052
9621169766
9621174466
9621181363
9621187649
9621194241
9621199551
9621206021
9621212979
9621217251
9621225125
9621229947
9621237088
9621242703
9621249173
9621255398
9621260891
9621268399
9621272854
9621279751
9621287503
9621294400
9621300808
9621305325
9621313198
9621319729
9621325467
9621330777
9621338406
9621344570
9621351284
9621355923
9621363064
9621368923
9621376614
9621386440
9621394741
9621400845
9621408474
9621414272
9621421108
9621427334
9621435024
9621441860
9621446804
9621454067
9621461208
9621467739
9621472683
9621479946
9621486782
9621493191
9621499599
9621506008
9621512844
9621519253
9621525356
9621530666
9621538662
9621544948
9621552578
9621558254
9621565883
9621572048
9621577663
9621584438
9621591579
9621596767
9621604030
9621609340
9621616542
9621622768
9621630031
9621637233
9621643703
9621647914
9621655056
9621660427
9621667568
9621673366
9621680751
9621687343
9621693752
9621700588
9621705348
9621712550
9621717311
9621725978
9621730983
9621739406
9621746364
9621752650
9621757716
9621765102
9621771693
9621777858
9621784816
9621790980
9621797328
9621803493
9621810329
9621816432
9621823390
9621830470
9621836268
9621843532
9621850612
9621857631
9621864039
9621870021
9621878322
9621883632
9621892238
9621898341
9621906215
9621911280
9621918849
9621926295
9621933985
9621942225
9621949671
9621957423
9621964076
9621971034
9621977198
9621984339
9621991541
9621998683
9622002528
9622013941
9622017603
9622029139
9622036585
9622044276
9622051234
9622062464
9622071802
9622078028
9622086573
9622092371
9622099390
9622108179
9622114893
9622123499
9622129908
9622138331
9622144251
9622152674
9622159449
9622166895
9622174585
9622182459
9622186914
9622195642
9622202600
9622209375
9622217005
9622225672
9622230982
9622239954
9622246912
9622254053
9622258386
9622269983
9622274134
9622283594
9622292688
9622300684
9622309351
9622315576
9622324304
9622332422
9622338586
9622346338
9622353540
9622361047
9622369714
9622377893
9622385156
9622392175
9622399866
9622409265
9622417016
9622424158
9622431726
9622437890
9622446374
9622454248
9622461206
9622466699
9622473962
9622480554
9622487451
9622491662
9622499292
9622504113
9622512475
9622517236
9622524011
9622530664
9622536706
9622543237
9622549218
9622553979
9622561364
9622567956
9622573815
9622580590
9622586450
9622593347
9622599084
9622606103
9622611535
9622618371
9622625329
9622631249
9622638146
9622645593
9622651452
9622656884
9622662133
9622668969
9622672143
9622682397
9622687707
9622694237
9622700036
9622705590
9622711754
9622718651
9622725915
9622731042
9622738244
9622743249
9622751061
9622755272
9622762291
9622768944
9622775170
9622780785
9622786278
9622792077
9622796349
9622804406
9622809716
9622816368
9622821984
9622828575
9622832604
9622838768
9622844567
9622850914
9622857262
9622861412
9622869408
9622874169
9622880882
9622886681
9622892235
9622899010
9622904320
9622909386
9622916649
9622922447
9622928917
9622933800
9622940208
9622948143
9622952599
9622960289
9622965721
9622971275
9622977928
9622983604
9622989464
9622996483
9623000938
9623007835
9623013634
9623020653
9623026207
9623033348
9623040550
9623046715
9623053550
9623058128
9623066063
9623071006
9623078453
9623083702
9623091209
9623096153
9623103965
9623109886
9623116783
9623121360
9623128379
9623135826
9623142112
9623148887
9623153465
9623160728
9623167381
9623173301
9623181419
9623186973
9623194602
9623201682
9623208091
9623215232
9623221336
9623227195
9623234824
9623238181
9623246665
9623249656
9623258567
9623264976
9623270164
9623277915
9623283530
9623291099
9623299155
9623304526
9623312522
9623319846
9623327292
9623333945
9623340354
9623347068
9623352988
9623359458
9623366965
9623372947
9623379172
9623386741
9623393088
9623398581
9623404441
9623411887
9623418051
9623424094
9623431418
9623436911
9623442832
9623449851
9623455344
9623462485
9623468527
9623475730
9623481772
9623488730
9623493552
9623500815
9623505698
9623512900
9623518637
9623525961
9623531455
9623538657
9623545370
9623551779
9623558188
9623564719
9623570761
9623575705
9623584494
9623589804
9623596091
9623603293
9623610068
9623617636
9623624289
9623630881
9623639425
9623644858
9623651632
9623659140
9623665915
9623673544
9623680258
9623686117
9623694296
9623700399
9623707052
9623714010
9623720419
9623726034
9623734091
9623741110
9623748678
9623756124
9623763265
9623769186
9623776510
9623783834
9623790243
9623799215
9623805380
9623814230
9623822408
9623829244
9623835897
9623842977
9623851522
9623858236
9623866659
9623872884
9623880208
9623888265
9623894796
9623901327
9623908651
9623917074
9623922567
9623930684
9623939596
9623945760
9623954854
9623961324
9623969503
9623978780
9623990438
9623995931
9624005574
9624013387
9624020162
9624028096
9624034627
9624041524
9624048116
9624054341
9624062886
9624068929
9624075520
9624081807
9624088582
9624096333
9624103047
9624109273
9624115682
9624121846
9624128133
9624133809
9624141194
9624146443
9624152364
9624158406
9624165852
9624170613
9624177937
9624184834
9624189900
9624195149
9624202290
9624209187
9624215291
9624221638
9624227925
9624235188
9624239766
9624247090
9624254109
9624260518
9624265583
9624272786
9624278889
9624284687
9624290303
9624296223
9624302815
9624308674
9624314900
9624320759
9624327046
9624332905
9624339802
9624345234
9624350544
9624357990
9624363911
9624370259
9624374775
9624381123
9624388020
9624393635
9624399128
9624405048
9624410420
9624417561
9624422810
9624429279
9624434223
9624440266
9624446125
9624451618
9624457233
9624463825
9624468647
9624475117
9624480488
9624486530
9624493122
9624499714
9624505085
9624511494
9624517719
9624522419
9624528888
9624534748
9624541828
9624548298
9624552448
9624560932
9624566059
9624573444
9624578998
9624587421
9624598102
9624604389
9624612323
9624617633
9624624347
9624630634
9624636554
9624643085
9624648029
9624654499
9624661212
9624665180
9624670856
9624677387
9624684345
9624691242
9624696430
9624703265
9624708514
9624713519
9624720599
9624729449
9624735919
9624743121
9624748187
9624754657
9624759357
9624766070
9624771991
9624779254
9624784930
9624790973
9624797259
9624802753
9624808795
9624816119
9624822345
9624828326
9624835467
9624841571
9624846270
9624852618
9624860309
9624866412
9624871295
9624879840
9624886187
9624892474
9624900470
9624906939
9624912554
9624920977
9624926898
9624931903
9624942217
9624949969
9624953936
9624961382
9624967425
9624974749
9624982256
9624989275
9624994769
9625002093
9625006793
9625014361
9625022845
9625027972
9625034869
9625040057
9625047686
9625053545
9625060015
9625067217
9625074663
9625081621
9625088579
9625093645
9625102434
9625110308
9625116228
9625124224
9625134539
9625139544
9625146685
9625155352
9625161516
9625168169
9625176104
9625182756
9625188128
9625195635
9625202227
9625208513
9625215166
9625220171
9625226091
9625232805
9625242327
9625248308
9625255327
9625263811
9625268633
9625275469
9625285784
9625292680
9625299944
9625307024
9625313860
9625321001
9625326921
9625333940
9625340471
9625346819
9625355547
9625361345
9625368608
9625375993
9625382951
9625391008
9625395708
9625404497
9625412675
9625418962
9625429521
9625438859
9625445634
9625454240
9625460222
9625469377
9625474931
9625483842
9625491227
9625497941
9625505815
9625513810
9625522782
9625528703
9625537126
9625546708
9625554704
9625561967
9625567094
9625576188
9625584916
9625594376
9625599809
9625609940
9625618058
9625625565
9625632584
9625641373
9625650407
9625657853
9625665238
9625671036
9625678910
9625684098
9625691849
9625697892
9625705582
9625709305
9625718033
9625724198
9625729813
9625736954
9625747757
9625754471
9625761063
9625766129
9625773270
9625779740
9625787430
9625791947
9625798966
9625805374
9625811600
9625817704
9625825028
9625831375
9625838578
9625845535
9625851151
9625857987
9625864029
9625872269
9625877762
9625882523
9625888687
9625894425
9625900467
9625905838
9625911331
9625916214
9625922745
9625928177
9625934891
9625942398
9625948685
9625953934
9625960037
9625966080
9625971512
9625977981
9625983536
9625989822
9625995010
9626000320
9626006546
9626012466
9626018081
9626024490
9626028457
9626034683
9626040603
9626046097
9626051529
9626056961
9626064346
9626069961
9626075454
9626081314
9626086990
9626093887
9626099441
9626104812
9626110672
9626117691
9626125442
9626130996
9626138748
9626142654
9626150527
9626155471
9626162307
9626169998
9626176650
9626180374
9626188064
9626194961
9626202895
9626209975
9626217544
9626223281
9626229812
9626236587
9626243972
9626249831
9626257033
9626263503
9626269668
9626276382
9626284194
9626288955
9626296645
9626302993
9626309829
9626314712
9626322402
9626327956
9626335769
9626342238
9626349501
9626356154
9626363051
9626367934
9626375441
9626381301
9626387648
9626395400
9626401320
9626407607
9626413832
9626421767
9626428481
9626435256
9626440688
9626446486
9626454665
9626460585
9626467848
9626473342
9626480605
9626487441
9626492751
9626498732
9626506422
9626512160
9626519606
9626527419
9626532240
9626539015
9626546339
9626552870
9626558852
9626565748
9626571120
9626577833
9626584791
9626591383
9626599074
9626604078
9626611525
9626617384
9626624220
9626633986
9626639967
9626646742
9626653883
9626660109
9626667067
9626675062
9626681776
9626687391
9626695875
9626702345
9626708754
9626714186
9626723219
9626728773
9626737440
9626745313
9626752943
9626761122
9626767957
9626775770
9626782911
9626793592
9626800367
9626804945
9626811536
9626820753
9626828199
9626834180
9626841322
9626847852
9626853590
9626862989
9626870435
9626875562
9626882581
9626888868
9626896741
9626902845
9626910047
9626916273
9626923230
9626930250
9626935499
9626943433
9626949415
9626957593
9626964978
9626972486
9626980420
9626986707
9626992139
9627001844
9627008313
9627016065
9627024610
9627032178
9627038709
9627047132
9627055676
9627063367
9627070569
9627081006
9627087171
9627095593
9627102795
9627111218
9627118970
9627126721
9627134900
9627140637
9627146313
9627154736
9627162488
9627170178
9627176037
9627181958
9627187146
9627193616
9627198987
9627207043
9627211499
9627218701
9627223889
9627230114
9627234753
9627242016
9627248974
9627252453
9627259716
9627265393
9627271069
9627276928
9627283215
9627289624
9627294934
9627300610
9627307507
9627312084
9627321667
9627326672
9627337170
9627344494
9627351025
9627356091
9627364086
9627369763
9627375439
9627381970
9627387280
9627393383
9627398144
9627403942
9627409802
9627414928
9627420849
9627427258
9627430981
9627437756
9627443798
9627449657
9627456066
9627460949
9627465649
9627471508
9627477062
9627483715
9627488476
9627494884
9627500072
9627506237
9627512218
9627518871
9627524608
9627530163
9627535473
9627540905
9627549083
9627556224
9627561840
9627568004
9627573192
9627579296
9627585704
9627592113
9627600719
9627604808
9627612316
9627617931
9627624645
9627630931
9627637889
9627644420
9627650829
9627656200
9627662242
9627669689
9627676097
9627682018
9627689586
9627695812
9627702159
9627709666
9627715953
9627723582
9627729259
9627736339
9627742870
9627749034
9627756358
9627763133
9627767772
9627775340
9627781138
9627787547
9627794383
9627800059
9627807261
9627815501
9627823131
9627830089
9627836924
9627843028
9627851268
9627856456
9627864268
9627871714
9627875743
9627883311
9627889170
9627896678
9627904368
9627908946
9627915965
9627923838
9627931834
9627937449
9627945139
9627949290
9627955943
9627962534
9627971140
9627976145
9627981455
9627988535
9627995127
9628002451
9628009715
9628016734
9628022654
9628029490
9628034129
9628041636
9628048960
9628055491
9628062083
9628069346
9628075815
9628084238
9628088572
9628096506
9628102549
9628109873
9628116343
9628122812
9628128855
9628134470
9628140940
9628147776
9628156137
9628162363
9628169931
9628178171
9628185678
9628194101
9628199594
9628207956
9628213693
9628220713
9628228098
9628235178
9628242624
9628249338
9628255991
9628261667
9628266672
9628275034
9628282480
9628291147
9628296884
9628304269
9628312631
9628319955
9628327585
9628335825
9628343393
9628347360
9628356576
9628362680
9628371286
9628380319
9628392465
9628399972
9628406747
9628415597
9628423227
9628434396
9628440500
9628449044
9628456002
9628462899
9628469491
9628475045
9628483224
9628491952
9628497933
9628506051
9628512094
9628517465
9628525826
9628532723
9628540109
9628546700
9628558541
9628565926
9628574960
9628582040
9628591866
9628598763
9628605233
9628611459
9628618356
9628625985
9628633675
9628640755
9628647164
9628652840
9628658761
9628665536
9628671700
9628677865
9628682747
9628689034
9628696114
9628701180
9628707711
9628715096
9628721383
9628727547
9628732064
9628738594
9628744820
9628752022
9628758736
9628765328
9628770455
9628777047
9628782173
9628787117
9628793587
9628800362
9628807015
9628812142
9628817940
9628824654
9628829293
9628836006
9628841622
9628848702
9628855110
9628860787
9628865669
9628871407
9628877205
9628884285
9628888985
9628895149
9628900337
9628904854
9628912422
9628918526
9628923164
9628930733
9628937691
9628945076
9628952339
9628959541
9628970161
9628977730
9628980598
9628987434
9628994392
9629000740
9629006599
9629013557
9629019172
9629025215
9629032722
9629037849
9629043464
9629050789
9629057014
9629062934
9629069892
9629075752
9629080696
9629086921
9629095039
9629099922
9629107490
9629114753
9629121711
9629128730
9629135139
9629141975
9629147651
9629155464
9629163093
9629168769
9629175666
9629183112
9629187263
9629195869
9629201667
9629207832
9629214973
9629221687
9629227729
9629235175
9629241462
9629248298
9629253486
9629259711
9629265815
9629272224
9629279120
9629286323
9629292609
9629298041
9629305549
9629309699
9629318244
9629325019
9629331122
9629338569
9629344245
9629350715
9629356452
9629363105
9629370124
9629376166
9629382636
9629388068
9629395819
9629402350
9629409857
9629414252
9629421942
9629427008
9629433051
9629442816
9629451056
9629457709
9629466071
9629472846
9629480170
9629488959
9629496649
9629501593
9629507880
9629514044
9629522772
9629529486
9629536139
9629542731
9629549628
9629555426
9629560797
9629568426
9629575690
9629583075
9629588690
9629595526
9629601446
9629608282
9629614752
9629620794
9629628424
9629635931
9629640875
9629647894
9629655462
9629663702
9629672125
9629676886
9629685247
9629690557
9629697882
9629705450
9629711614
9629718084
9629726263
9629731085
9629738958
9629746465
9629753973
9629760015
9629766546
9629774114
9629778570
9629786260
9629795599
9629802679
9629809332
9629818121
9629826238
9629830999
9629839300
9629847784
9629855779
9629862432
9629868719
9629877080
9629884649
9629893377
9629901372
9629910039
9629918706
9629925115
9629932988
9629938909
9629946782
9629955266
9629962773
9629971990
9629978826
9629986882
9629995000
9630000554
9630010747
9630019353
9630027471
9630034551
9630042546
9630050786
9630060552
9630068547
9630080693
9630088078
9630097661
9630103947
9630111211
9630117619
9630124150
9630130498
9630136174
9630142949
9630148015
9630152836
9630162236
9630168522
9630174687
9630179570
9630185978
9630193425
9630198918
9630205388
9630211552
9630217961
9630223881
9630228825
9630236393
9630243596
9630250676
9630255497
9630262516
9630267338
9630274479
9630280705
9630289067
9630294987
9630300907
9630306828
9630312626
9630318730
9630326359
9630333561
9630336979
9630344425
9630348820
9630354679
9630366703
9630373051
9630381596
9630388981
9630397038
9630406193
9630414494
9630423466
9630431156
9630447086
9630457706
9630464237
9630470646
9630476871
9630482975
9630488895
9630495487
9630501102
9630506534
9630513126
9630518497
9630525272
9630531620
9630537723
9630545108
9630552005
9630556156
9630564395
9630570255
9630576175
9630583194
9630588687
9630596805
9630607669
9630615970
9630622318
9630630069
9630638309
9630644962
9630651553
9630657596
9630664249
9630672000
9630677127
9630684512
9630690006
9630697025
9630704288
9630709903
9630716922
9630724734
9630731143
9630738223
9630743655
9630750186
9630757083
9630765140
9630770755
9630777591
9630784244
9630790652
9630797610
9630805056
9630810489
9630816836
9630823611
9630829837
9630836917
9630843631
9630848452
9630857669
9630863711
9630869632
9630876284
9630881533
9630887759
9630895144
9630901919
9630909793
9630915225
9630922610
9630929263
9630937380
9630944766
9630951174
9630957705
9630964907
9630970767
9630977541
9630985537
9630990847
9630998782
9631005434
9631010744
9631017458
9631024782
9631029482
9631037844
9631042177
9631050478
9631058291
9631063357
9631070376
9631077639
9631084231
9631090822
9631098330
9631104006
9631111025
9631119143
9631124575
9631132326
9631138918
9631147768
9631157106
9631163332
9631173769
9631180483
9631188051
9631193239
9631200685
9631207277
9631215090
9631220461
9631226320
9631232851
9631238710
9631248354
9631254457
9631260927
9631266298
9631274294
9631281007
9631286134
9631293336
9631300905
9631309450
9631314455
9631322450
9631329774
9631336183
9631343690
9631350831
9631357179
9631364442
9631371034
9631377809
9631386842
9631392518
9631399598
9631406678
9631413820
9631419191
9631430299
9631437379
9631444703
9631452516
9631460450
9631467469
9631476136
9631484071
9631490785
9631498536
9631507447
9631519654
9631526795
9631536622
9631545777
9631552125
9631561585
9631568910
9631577027
9631582581
9631594666
9631601380
9631609193
9631616639
9631624146
9631628175
9631635499
9631643250
9631649659
9631656312
9631662659
9631668580
9631673401
9631680543
9631687073
9631691651
9631697693
9631706055
9631711304
9631717469
9631725403
9631731080
9631736817
9631743225
9631750489
9631756226
9631763428
9631769715
9631778137
9631784973
9631788941
9631797058
9631801880
9631808594
9631814453
9631821533
9631827454
9631832703
9631838684
9631844177
9631849976
9631856201
9631862122
9631868713
9631876343
9631882935
9631889038
9631893616
9631899170
9631905395
9631912292
9631917969
9631924316
9631931335
9631936828
9631941833
9631947265
9631952820
9631960754
9631966369
9631972412
9631977844
9631982361
9631988830
9631994568
9632000610
9632008239
9632014343
9632018921
9632024963
9632031189
9632037902
9632044189
9632049438
9632057190
9632061828
9632068054
9632074768
9632081298
9632086791
9632092956
9632100158
9632106140
9632113708
9632119689
9632125732
9632131530
9632140136
9632144958
9632151916
9632158202
9632164184
9632170715
9632177490
9632184020
9632190246
9632197997
9632204345
9632210815
9632215758
9632223266
9632229308
9632237060
9632242675
9632252318
9632260985
9632268371
9632273314
9632280272
9632287230
9632293944
9632300048
9632306456
9632313781
9632317870
9632329528
9632334777
9632342589
9632347411
9632353453
9632359862
9632368041
9632375914
9632382079
9632388610
9632394164
9632401000
9632407286
9632413207
9632419676
9632426817
9632432616
9632439879
9632444518
9632451109
9632459288
9632464598
9632471678
9632477965
9632484740
9632490599
9632497313
9632504027
9632508971
9632515135
9632522398
9632530333
9632537352
9632544981
9632550108
9632559019
9632566954
9632574156
9632580626
9632587828
9632594786
9632600523
9632607908
9632615538
9632622557
9632630491
9632638670
9632643919
9632651792
9632656614
9632665708
9632674742
9632683042
9632691038
9632696897
9632705442
9632713865
9632719114
9632729917
9632738157
9632743711
9632752805
9632757932
9632766599
9632775266
9632784238
9632791196
9632800779
9632811582
9632818601
9632825986
9632837644
9632845273
9632854856
9632862485
9632870969
9632878232
9632884946
9632892148
9632900815
9632908262
9632915220
9632922849
9632929441
9632937619
9632945798
9632953550
9632959714
9632967588
9632977964
9632985837
9632992490
9633002927
9633008664
9633016782
9633025266
9633031613
9633040158
9633046628
9633056149
9633064694
9633072751
9633080685
9633087460
9633094479
9633103757
9633112668
9633118405
9633128720
9633135190
9633141843
9633146664
9633153378
9633160885
9633166989
9633174252
9633179257
9633185483
9633191708
9633196835
9633203610
9633208737
9633215451
9633222165
9633228207
9633235531
9633241696
9633247860
9633255246
9633261898
9633268002
9633273556
9633279965
9633285641
9633291867
9633297848
9633304623
9633309628
9633316647
9633324276
9633330807
9633336422
9633342648
9633349117
9633354427
9633361446
9633367123
9633374203
9633379452
9633383968
9633390804
9633398251
9633405147
9633413875
9633419430
9633426876
9633433285
9633438167
9633445186
9633451778
9633458431
9633462826
9633469967
9633476314
9633481014
9633486141
9633492305
9633499447
9633506099
9633512203
9633517635
9633523189
9633529171
9633536251
9633541805
9633548824
9633554012
9633561153
9633566341
9633572078
9633578609
9633586360
9633590877
9633598628
9633604610
9633610164
9633616512
9633621761
9633628291
9633635066
9633640926
9633647334
9633653072
9633660640
9633666866
9633672115
9633680843
9633686458
9633692622
9633698421
9633705989
9633711299
9633718928
9633724361
9633731868
9633737117
9633744807
9633749690
9633757136
9633762019
9633769221
9633776240
9633782466
9633788142
9633794246
9633801753
9633807734
9633813533
9633820796
9633827815
9633832454
9633839228
9633844722
9633851435
9633857844
9633864680
9633872187
9633877131
9633884455
9633889094
9633896357
9633901972
9633909052
9633917109
9633922236
9633930720
9633935664
9633943049
9633947932
9633955622
9633961054
9633968684
9633977106
9633982355
9633990473
9633995844
9634003901
9634011347
9634020380
9634026484
9634033808
9634039789
9634046869
9634053217
9634059870
9634066218
9634072687
9634079096
9634086298
9634092524
9634097162
9634104303
9634111994
9634118097
9634124933
9634131098
9634137018
9634144648
9634149408
9634157526
9634163935
9634169611
9634176508
9634182001
9634189630
9634195123
9634200128
9634207697
9634213922
9634220941
9634226740
9634233881
9634241144
9634247614
9634254266
9634259271
9634267877
9634274774
9634281488
9634286859
9634293512
9634301935
9634307062
9634315607
9634324884
9634331659
9634336786
9634344537
9634350885
9634356988
9634363885
9634371637
9634377984
9634383966
9634390680
9634398614
9634404107
9634412652
9634419183
9634426324
9634432855
9634441156
9634447992
9634456964
9634464288
9634469964
9634477044
9634485589
9634493707
9634499566
9634508233
9634513787
9634521661
9634529473
9634536553
9634544732
9634552300
9634558831
9634565728
9634573479
9634580621
9634586480
9634595269
9634601617
9634610467
9634616326
9634625054
9634631341
9634638054
9634645318
9634654839
9634663201
9634671807
9634679009
9634686821
9634696099
9634704522
9634712334
9634720696
9634728020
9634735283
9634743523
9634750603
9634754570
9634762932
9634770561
9634777458
9634782768
9634790764
9634796135
9634803520
9634810295
9634817314
9634822746
9634829765
9634836052
9634841301
9634848076
9634853386
9634858574
9634865410
9634872917
9634879021
9634883232
9634890068
9634895622
9634902458
9634907646
9634914482
9634919792
9634926750
9634935356
9634940361
9634946281
9634953544
9634959404
9634965568
9634971306
9634977104
9634982963
9634989799
9634995903
9635001213
9635008781
9635013908
9635020439
9635026786
9635031791
9635038322
9635043327
9635048881
9635055168
9635062187
9635067924
9635073356
9635079826
9635085136
9635089775
9635096427
9635101249
9635107658
9635115165
9635121574
9635126762
9635131522
9635137931
9635142875
9635149223
9635156120
9635162406
9635167655
9635172477
9635179862
9635184684
9635191154
9635198478
9635203178
9635210685
9635216239
9635222159
9635227103
9635233878
9635241324
9635248649
9635255729
9635261893
9635269462
9635275016
9635282645
9635290091
9635294974
9635304435
9635310477
9635316459
9635323783
9635327933
9635336539
9635342276
9635349478
9635355765
9635361991
9635368399
9635374381
9635380362
9635387869
9635393973
9635400931
9635406973
9635414420
9635423270
9635430045
9635436575
9635443900
9635450980
9635457632
9635462820
9635469046
9635475821
9635480643
9635489493
9635496695
9635502920
9635510184
9635515738
9635523306
9635528799
9635535147
9635541556
9635548392
9635555899
9635560904
9635566092
9635573721
9635579886
9635586905
9635593741
9635598806
9635604849
9635612539
9635618643
9635624990
9635632254
9635639822
9635646231
9635651480
9635657278
9635664114
9635670584
9635677114
9635684683
9635691274
9635698232
9635702932
9635709219
9635716787
9635721975
9635729665
9635737112
9635743887
9635749990
9635755911
9635762380
9635770193
9635776479
9635783865
9635790823
9635799551
9635806753
9635815603
9635820180
9635831228
9635838613
9635845754
9635852651
9635863027
9635869985
9635877309
9635885122
9635890554
9635899160
9636021474
9636030995
9636040151
9636044850
9636057545
9636064565
9636071828
9636078908
9636088307
9636095143
9636102345
9636106557
9636118519
9636127125
9636134877
9636142689
9636153615
9636162465
9636168812
9636176808
9636183949
9636187977
9636200489
9636208058
9636215687
9636223194
9636230580
9636240101
9636246693
9636250538
9636261097
9636266102
9636274342
9636282215
9636286915
9636295521
9636302174
9636308399
9636314564
9636321705
9636327259
9636334400
9636339771
9636348927
9636353870
9636362293
9636367298
9636374989
9636384022
9636392872
9636398121
9636404163
9636408680
9636415272
9636421131
9636428455
9636432545
9636440540
9636449329
9636455555
9636460865
9636466480
9636472339
9636478565
9636483631
9636491016
9636496814
9636501880
9636508045
9636514698
9636519397
9636526599
9636532520
9636539539
9636545398
9636552906
9636559070
9636564624
9636570484
9636576465
9636581104
9636587207
9636594165
9636600147
9636604480
9636610767
9636616626
9636621814
9636629199
9636634876
9636640796
9636646594
9636653003
9636658618
9636666187
9636671558
9636676807
9636683032
9636689014
9636695239
9636702258
9636708606
9636714770
9636719714
9636725574
9636731860
9636739612
9636747058
9636753894
9636761096
9636769153
9636777514
9636783496
9636790515
9636796618
9636804004
9636811389
9636817736
9636825183
9636831652
9636838793
9636844409
9636852587
9636857592
9636867602
9636874316
9636882983
9636889269
9636897387
9636905566
9636914172
9636921740
9636927905
9636934924
9636942797
9636950365
9636955004
9636964648
9636969836
9636977282
9636982348
9636990526
9636996264
9637003283
9637010668
9637022021
9637027453
9637034228
9637041430
9637047472
9637055040
9637062548
9637069201
9637075060
9637080919
9637087938
9637095263
9637100084
9637108934
9637114122
9637120653
9637127062
9637133287
9637140428
9637147509
9637153246
9637160082
9637166796
9637173265
9637179979
9637184862
9637194017
9637199510
9637206163
9637212023
9637219408
9637226976
9637234300
9637241075
9637246935
9637252489
9637259691
9637265855
9637271043
9637279954
9637285997
9637293870
9637301561
9637307542
9637315965
9637322374
9637330736
9637337755
9637344835
9637354478
9637360582
9637367784
9637373704
9637382554
9637389451
9637397813
9637406785
9637413316
9637422654
9637430528
9637438279
9637446702
9637454331
9637462693
9637472032
9637477647
9637486009
9637494737
9637500230
9637508347
9637516221
9637522324
9637528367
9637536301
9637544114
9637551621
9637556321
9637563828
9637570237
9637576401
9637582200
9637590806
9637597459
9637605271
9637611191
9637616990
9637624497
9637630601
9637637436
9637643540
9637649888
9637658555
9637665452
9637673813
9637680649
9637687363
9637694809
9637701706
9637709336
9637720017
9637728867
9637738694
9637749741
9637759873
9637769699
9637778427
9637786362
9637792648
9637799118
9637804550
9637811630
9637817368
9637824204
9637830917
9637836716
9637842270
9637848618
9637855392
9637861679
9637868149
9637874863
9637881515
9637888168
9637892929
9637899643
9637907699
9637912460
9637919418
9637925216
9637932052
9637939926
9637947983
9637953598
9637959640
9637965988
9637971664
9637977829
9637984481
9637989914
9637996322
9638002426
9638008346
9638014083
9638018844
9638026535
9638032272
9638037460
9638044845
9638048690
9638055648
9638062972
9638073226
9638082076
9638089401
9638094100
9638102035
9638109908
9638116256
9638122237
9638127670
9638132552
9638138412
9638144942
9638151046
9638156295
9638162521
9638169234
9638174544
9638180953
9638188583
9638193893
9638200728
9638206405
9638212447
9638219832
9638225204
9638231978
9638237288
9638243941
9638250228
9638255721
9638262130
9638269942
9638276107
9638281966
9638288192
9638294417
9638301375
9638308455
9638314132
9638320174
9638326766
9638333174
9638341292
9638347212
9638352950
9638361922
9638368636
9638376448
9638383956
9638390059
9638398360
9638404952
9638411726
9638418929
9638426314
9638432845
9638440169
9638448042
9638454756
9638462569
9638468062
9638475081
9638481917
9638489851
9638497237
9638503462
9638510176
9638516401
9638523482
9638528608
