10107679690
10107685366
10107691043
10107696109
10107701236
10107705569
10107711306
10107718081
10107723025
10107728518
10107734317
10107738711
10107745059
10107751406
10107757510
10107763613
10107768740
10107775332
10107780337
10107786562
10107792483
10107798831
10107806216
10107812685
10107818179
10107825259
10107833681
10107838442
10107846865
10107854372
10107859377
10107867922
10107876040
10107880801
10107890749
10107896792
10107905398
10107909243
10107918703
10107925234
10107931093
10107938418
10107944704
10107953432
10107957888
10107965700
10107971621
10107978457
10107985903
10107991457
10108000002
10108006594
10108013613
10108019777
10108026857
10108032839
10108038637
10108048342
10108054323
10108061708
10108069399
10108081239
10108088991
10108096925
10108106508
10108113100
10108121828
10108128969
10108137819
10108143739
10108151369
10108159914
10108166200
10108174196
10108181703
10108188417
10108194642
10108202943
10108211183
10108218019
10108226930
10108234071
10108240236
10108248048
10108255311
10108264039
10108270692
10108278444
10108285524
10108293336
10108300721
10108309022
10108317872
10108326417
10108332337
10108338990
10108346803
10108355409
10108361695
10108370301
10108376832
10108385438
10108393678
10108399903
10108408692
10108416383
10108423463
10108432435
10108438477
10108445374
10108453553
10108460389
10108468629
10108477723
10108485474
10108492615
10108499817
10108507020
10108514283
10108522706
10108530884
10108537598
10108546204
10108551697
10108561158
10108567994
10108576355
10108583435
10108591492
10108599182
10108606568
10108615540
10108622193
10108629761
10108637940
10108643860
10108652161
10108658997
10108666748
10108677551
10108683777
10108692200
10108699341
10108708313
10108717163
10108726440
10108734375
10108742187
10108750244
10108758667
10108768982
10108777038
10108783325
10108793640
10108802246
10108811157
10108819092
10108828735
10108835876
10108843628
10108853576
10108861206
10108868103
10108874389
10108881469
10108889892
10108896789
10108903686
10108911132
10108920227
10108924621
10108933898
10108941039
10108948669
10108954711
10108962402
10108971618
10108978576
10108985534
10108992248
10108998534
10109004333
10109012573
10109019531
10109027465
10109034484
10109041991
10109048766
10109055602
10109062072
10109069945
10109077880
10109083800
10109092956
10109100890
10109107970
10109117187
10109124328
10109131286
10109140197
10109147338
10109152709
10109159484
10109167296
10109176207
10109185790
10109192382
10109201781
10109208495
10109215270
10109224059
10109230895
10109238707
10109246337
10109252318
10109259886
10109265502
10109274291
10109279845
10109286437
10109293028
10109305296
10109312743
10109318480
10109327269
10109333434
10109339537
10109347166
10109357054
10109365416
10109372435
10109379515
10109386290
10109393431
10109401182
10109408262
10109418944
10109425108
10109434507
10109441343
10109452086
10109461180
10109474852
10109482481
10109491758
10109498655
10109508787
10109515745
10109524412
10109534483
10109541441
10109549131
10109557615
10109565428
10109572263
10109580259
10109588743
10109596372
10109604124
10109610716
10109619077
10109623960
10109633115
10109641538
10109648618
10109656797
10109664365
10109671201
10109679685
10109687559
10109695798
10109703489
10109711973
10109719358
10109727353
10109734922
10109742673
10109750180
10109758176
10109765439
10109773130
10109780210
10109786557
10109791318
10109801877
10109809384
10109816037
10109825498
10109831357
10109838315
10109845456
10109852475
10109860105
10109869382
10109877072
10109884457
10109894040
10109901120
10109908200
10109916135
10109925351
10109932980
10109941891
10109949277
10109957699
10109964657
10109973630
10109981259
10109989377
10109996640
10110002316
10110009518
10110018673
10110025631
10110034054
10110041989
10110048764
10110056393
10110063046
10110070431
10110076718
10110083432
10110090817
10110097653
10110103756
10110109799
10110115902
10110122921
10110128903
10110134762
10110142086
10110149166
10110156124
10110162350
10110173458
10110179806
10110187924
10110197567
10110205074
10110212276
10110218990
10110225643
10110232052
10110239498
10110246212
10110252254
10110258358
10110265743
10110272030
10110277706
10110283809
10110290584
10110296871
10110303646
10110309871
10110316463
10110321163
10110329158
10110335384
10110341915
10110348385
10110353756
10110362301
10110367977
10110374324
10110381282
10110387386
10110394832
10110401790
10110406734
10110414363
10110419612
10110427669
10110433040
10110439144
10110446163
10110452510
10110457698
10110466548
10110473079
10110479854
10110486446
10110493221
10110499385
10110506099
10110512202
10110518733
10110525691
10110532161
10110539607
10110547298
10110554927
10110562007
10110568355
10110576106
10110582515
10110590755
10110597285
10110604487
10110610408
10110618770
10110625483
10110632991
10110641230
10110648372
10110654170
10110661677
10110668574
10110677668
10110684016
10110691401
10110700068
10110705439
10110712702
10110719905
10110726985
10110734675
10110743403
10110750361
10110757014
10110764094
10110770258
10110779231
10110784846
10110792292
10110801386
10110808833
10110816157
10110823725
10110829645
10110838312
10110844782
10110853388
10110864435
10110875910
10110883112
10110890986
10110900934
10110907343
10110915583
10110924311
10110929072
10110938776
10110945368
10110951349
10110958735
10110967401
10110974726
10110981195
10110988581
10110995050
10111002375
10111009455
10111016901
10111024286
10111031732
10111040155
10111047479
10111053278
10111059625
10111068475
10111074945
10111090265
10111097772
10111106744
10111114496
10111120843
10111128351
10111135065
10111142999
10111150873
10111158990
10111165887
10111172967
10111177789
10111188165
10111192926
10111200616
10111207879
10111214776
10111222223
10111231012
10111236383
10111244561
10111252069
10111259088
10111266473
10111273309
10111280816
10111288446
10111295709
10111302117
10111308526
10111317681
10111324212
10111330926
10111337640
10111346734
10111353204
10111361260
10111367791
10111372491
10111380303
10111387505
10111394891
10111401849
10111409234
10111413995
10111420708
10111426629
10111432488
10111438775
10111445122
10111454278
10111458855
10111464715
10111472222
10111477593
10111484246
10111490105
10111495965
10111502923
10111510369
10111516411
10111521660
10111527520
10111532647
10111540398
10111546685
10111554741
10111560967
10111568901
10111575127
10111580437
10111586724
10111594597
10111604485
10111609917
10111616020
10111623528
10111627922
10111635185
10111641533
10111647698
10111654472
10111660210
10111665642
10111671562
10111676872
10111682121
10111687370
10111693474
10111700371
10111706352
10111713188
10111718315
10111723686
10111728935
10111735222
10111742058
10111747551
10111752617
10111758354
10111763603
10111769523
10111774895
10111781425
10111788261
10111793754
10111799858
10111807243
10111813347
10111819389
10111823967
10111831901
10111837639
10111844047
10111849784
10111855827
10111861930
10111868949
10111872612
10111880790
10111887321
10111894584
10111900260
10111905876
10111911918
10111917594
10111924247
10111930046
10111936759
10111942375
10111947990
10111955009
10111959892
10111967765
10111973319
10111978874
10111985954
10111992912
10111999015
10112004203
10112011588
10112017570
10112023978
10112029899
10112037223
10112043449
10112049247
10112055228
10112062858
10112069999
10112075248
10112081412
10112086966
10112095756
10112101859
10112107413
10112113822
10112120475
10112129386
10112134879
10112147086
10112154715
10112159842
10112166922
10112175650
10112179984
10112187796
10112194266
10112201834
10112208182
10112212943
10112220633
10112225333
10112231497
10112239493
10112246329
10112251517
10112257926
10112264945
10112271231
10112276175
10112282340
10112288748
10112295462
10112303946
10112310355
10112315665
10112321951
10112328848
10112335318
10112340750
10112346915
10112353873
10112360892
10112366202
10112373404
10112378897
10112386282
10112394156
10112400870
10112407034
10112412283
10112418448
10112425589
10112431631
10112437246
10112444876
10112451590
10112457754
10112463736
10112469839
10112475759
10112481863
10112488394
10112494680
10112502004
10112508291
10112514395
10112520559
10112526724
10112533071
10112540518
10112547537
10112554556
10112561147
10112566152
10112572866
10112579153
10112585683
10112593984
10112598440
10112608022
10112614736
10112619558
10112626272
10112633291
10112639944
10112645315
10112653310
10112659353
10112666616
10112672231
10112677419
10112683339
10112690969
10112699453
10112704824
10112712575
10112718252
10112727224
10112734365
10112741323
10112746083
10112757436
10112765309
10112772206
10112780385
10112787282
10112794789
10112801930
10112809011
10112818166
10112826283
10112833364
10112840444
10112847096
10112852834
10112858266
10112865956
10112871938
10112877431
10112885060
10112890248
10112896535
10112904774
10112910939
10112916981
10112923085
10112930104
10112936452
10112943349
10112949635
10112955495
10112964650
10112972279
10112979603
10112986561
10112992116
10113000905
10113008351
10113014760
10113023121
10113030262
10113037465
10113043751
10113052357
10113057911
10113064503
10113070118
10113077687
10113082936
10113090260
10113095326
10113101246
10113107533
10113113514
10113119862
10113125843
10113132130
10113138111
10113144459
10113150501
10113157215
10113163258
10113170155
10113176441
10113181019
10113187000
10113194080
10113200001
10113205433
10113211414
10113222156
10113227833
10113233753
10113240040
10113245716
10113251881
10113257618
10113263538
10113271168
10113275562
10113282215
10113287281
10113293201
10113298389
10113303638
10113310657
10113315113
10113322193
10113327442
10113332935
10113338306
10113344471
10113352405
10113357166
10113363025
10113368518
10113374988
10113381824
10113388172
10113394458
10113403003
10113410083
10113416248
10113421192
10113428638
10113433887
10113440662
10113448352
10113453967
10113458606
10113465015
10113470020
10113476856
10113481738
10113487964
10113495105
10113500659
10113506335
10113511584
10113518726
10113524768
10113530505
10113540942
10113547534
10113553149
10113559253
10113565051
10113571277
10113578601
10113583178
10113590259
10113596606
10113602160
10113608691
10113612536
10113619922
10113626941
10113631884
10113638171
10113645312
10113650622
10113656054
10113664233
10113670459
10113677355
10113683276
10113689746
10113695849
10113701159
10113707324
10113714282
10113721728
10113728564
10113734606
10113741015
10113747302
10113752795
10113759020
10113766345
10113772509
10113778613
10113784533
10113791979
10113797778
10113804675
10113810839
10113816210
10113824145
10113830248
10113837267
10113843066
10113849718
10113854357
10113862719
10113869005
10113875719
10113882128
10113887499
10113895006
10113900805
10113905871
10113913439
10113920153
10113926073
10113933214
10113939135
10113946032
10113951464
10113956896
10113966906
10113973864
10113980822
10113987535
10113993395
10114000536
10114008104
10114014635
10114021593
10114028124
10114033251
10114041673
10114046495
10114052782
10114059251
10114067674
10114074144
10114080675
10114086839
10114093004
10114099901
10114106004
10114111681
10114118333
10114124681
10114132005
10114136888
10114144700
10114152513
10114159349
10114164903
10114172655
10114177965
10114186387
10114192491
10114198045
10114204271
10114211229
10114217393
10114224229
10114230272
10114237107
10114243211
10114249620
10114255967
10114261216
10114267320
10114274522
10114280625
10114287461
10114293626
10114299668
10114305772
10114312913
10114319871
10114325486
10114331529
10114339341
10114345017
10114351914
10114355882
10114364793
10114368943
10114377366
10114383530
10114388535
10114394822
10114402451
10114409348
10114414902
10114421799
10114428818
10114436326
10114443650
10114450974
10114459641
10114465256
10114474106
10114481614
10114487961
10114495408
10114503342
10114510544
10114516770
10114523972
10114531479
10114539109
10114546982
10114554428
10114561386
10114570420
10114577194
10114584641
10114592697
10114601242
10114607956
10114615097
10114621628
10114628281
10114638535
10114643051
10114653244
10114661423
10114673752
10114681747
10114688828
10114696884
10114703781
10114711655
10114717453
10114725571
10114730636
10114738693
10114744491
10114750534
10114755844
10114762924
10114770431
10114775802
10114781601
10114788254
10114794052
10114799850
10114805710
10114812057
10114819626
10114824936
10114830795
10114836349
10114843673
10114848434
10114855880
10114861068
10114866989
10114873336
10114879257
10114885177
10114891036
10114897689
10114903488
10114909347
10114915206
10114922103
10114927657
10114933395
10114938888
10114945968
10114949630
10114957076
10114964278
10114969833
10114975753
10114981185
10114987716
10114993209
10114999129
10115005782
10115011642
10115017013
10115022933
10115028182
10115034774
10115040572
10115045760
10115052291
10115057967
10115063643
10115068831
10115074813
10115080550
10115087264
10115093551
10115098555
10115104598
10115111373
10115116439
10115121627
10115127181
10115134078
10115138594
10115144759
10115151595
10115156661
10115162154
10115168624
10115174544
10115181197
10115187117
10115192061
10115198653
10115203353
10115210372
10115216719
10115223616
10115232283
10115243514
10115248579
10115256575
10115264204
10115270308
10115278426
10115283614
10115289778
10115296919
10115302840
10115309126
10115314741
10115320296
10115328535
10115334090
10115340925
10115345930
10115352217
10115360213
10115366377
10115373579
10115379439
10115386580
10115393049
10115398787
10115405989
10115411665
10115418928
10115424360
10115431746
10115437056
10115443098
10115450788
10115455915
10115464521
10115470137
10115475630
10115483381
10115489546
10115495588
10115501753
10115508650
10115514692
10115521467
10115527509
10115533186
10115540815
10115547163
10115553205
10115559004
10115567121
10115572370
10115580000
10115585310
10115591474
10115597944
10115604353
10115612287
10115619062
10115625715
10115631818
10115637250
10115643476
10115650373
10115656660
10115663862
10115670514
10115676679
10115682966
10115689130
10115696882
10115701825
10115708173
10115715436
10115724103
10115729535
10115735822
10115743390
10115748334
10115755902
10115762372
10115768598
10115775128
10115781049
10115786847
10115793317
10115800153
10115806439
10115811749
10115819013
10115824811
10115833295
10115839032
10115847150
10115853742
10115860333
10115867108
10115874921
10115882001
10115887494
10115894208
10115900738
10115908673
10115914532
10115925580
10115932049
10115938153
10115944195
10115950177
10115955487
10115963727
10115969830
10115975506
10115981549
10115989117
10115995221
10116001385
10116007611
10116014447
10116020672
10116027508
10116033673
10116039288
10116045513
10116052899
10116059185
10116065411
10116072125
10116078594
10116084393
10116091900
10116098919
10116105877
10116111859
10116119000
10116126568
10116132000
10116139996
10116146160
10116152569
10116159344
10116167950
10116176250
10116183208
10116190594
10116197735
10116204204
10116211224
10116217876
10116226116
10116232647
10116241314
10116247845
10116255230
10116263286
10116270183
10116276592
10116283977
10116292644
10116300884
10116308208
10116316204
10116323345
10116329876
10116337017
10116344890
10116352153
10116360027
10116367107
10116374675
10116379863
10116387187
10116393474
10116401409
10116408183
10116415264
10116420207
10116427287
10116432475
10116438274
10116445415
10116451518
10116458293
10116462016
10116469768
10116475688
10116480876
10116488383
10116494548
10116501750
10116507854
10116514384
10116521037
10116527263
10116533549
10116541301
10116547526
10116555827
10116564616
10116570781
10116577311
10116582988
10116589885
10116595744
10116600993
10116606486
10116612956
10116618449
10116624919
10116630900
10116635295
10116643046
10116647258
10116652629
10116660014
10116665263
10116670085
10116676310
10116682597
10116688639
10116693522
10116700663
10116706095
10116711344
10116718180
10116722636
10116729533
10116736247
10116741740
10116747355
10116752787
10116758524
10116763895
10116769205
10116777079
10116781779
10116787699
10116792521
10116799906
10116804667
10116810343
10116817667
10116824320
10116830179
10116836710
10116840739
10116847330
10116854716
10116859842
10116866861
10116872660
10116879374
10116884684
10116890055
10116895548
10116903910
10116910379
10116916117
10116922709
10116928202
10116934610
10116938761
10116946329
10116952860
10116957743
10116965921
10116972025
10116978250
10116984110
10116990335
10116996622
10117004923
10117010965
10117017679
10117023905
10117029093
10117035928
10117044473
10117051126
10117056986
10117062418
10117068521
10117076944
10117083902
10117089395
10117100198
10117107034
10117114908
10117121744
10117129434
10117135782
10117141458
10117151590
10117157022
10117165017
10117171182
10117176736
10117184427
10117190103
10117197915
10117203653
10117209756
10117215738
10117223428
10117229104
10117235147
10117240823
10117248941
10117255410
10117261514
10117266763
10117272988
10117280191
10117286538
10117292336
10117299233
10117307229
10117313394
10117318887
10117325173
10117332803
10117339883
10117344888
10117352761
10117359414
10117366067
10117371499
10117377847
10117383462
10117391762
10117398110
10117405068
10117411111
10117417702
10117423867
10117429299
10117436989
10117442361
10117450051
10117455422
10117463418
10117468178
10117473916
10117479897
10117485634
10117491433
10117498024
10117506325
10117512490
10117519814
10117526223
10117532509
10117537697
10117543373
10117551796
10117558327
10117564797
10117570900
10117577126
10117583595
10117589211
10117596108
10117604286
10117609535
10117616921
10117623085
10117629067
10117635170
10117640480
10117649025
10117655006
10117662697
10117670509
10117678444
10117685524
10117692604
10117700539
10117709633
10117718056
10117726662
10117732826
10117742348
10117749489
10117756386
10117764442
10117771827
10117778053
10117784645
10117796058
10117802406
10117808448
10117815162
10117822792
10117829383
10117835548
10117841774
10117849769
10117856544
10117863075
10117869911
10117877113
10117883583
10117890541
10117897315
10117904212
10117911170
10117918922
10117926063
10117934669
10117942176
10117948035
10117957618
10117963416
10117970802
10117979041
10117987403
10117993201
10118000648
10118008338
10118015601
10118022437
10118029761
10118037452
10118044471
10118049659
10118056189
10118063880
10118070411
10118076880
10118082984
10118088538
10118094703
10118101050
10118107032
10118114600
10118120642
10118126258
10118132361
10118138770
10118144873
10118151465
10118157263
10118162635
10118168555
10118175330
10118181372
10118187659
10118194373
10118201758
10118208045
10118214209
10118222754
10118231726
10118239356
10118246375
10118255652
10118261755
10118268774
10118274268
10118280188
10118285498
10118290503
10118296362
10118303076
10118308508
10118313208
10118319800
10118326269
10118330664
10118337317
10118341955
10118347326
10118354101
10118359594
10118367102
10118371924
10118377783
10118385473
10118391333
10118399206
10118405920
10118412817
10118418859
10118424902
10118434729
10118440283
10118445410
10118452246
10118457739
10118463232
10118468237
10118475744
10118480810
10118485937
10118491918
10118497412
10118505102
10118511083
10118515722
10118522192
10118528600
10118532324
10118541418
10118546667
10118551733
10118559118
10118566442
10118571935
10118577734
10118583776
10118589452
10118595861
10118601537
10118607030
10118612646
10118620336
10118626989
10118632116
10118638585
10118645177
10118651098
10118659215
10118665685
10118671727
10118678136
10118684179
10118689977
10118697667
10118702977
10118708959
10118716344
10118723790
10118728978
10118737523
10118743322
10118748876
10118756871
10118762242
10118770360
10118775365
10118782689
10118787938
10118794835
10118800450
10118807897
10118815587
10118820531
10118828221
10118832921
10118840733
10118845433
10118853795
10118859227
10118866124
10118873631
10118878514
10118886021
10118891576
10118900243
10118905186
10118911290
10118919163
10118926365
10118931553
10118937718
10118943272
10118952977
10118959813
10118965245
10118972447
10118979527
10118986424
10118993809
10119000279
10119008274
10119013096
10119020909
10119029148
10119035008
10119041661
10119048924
10119055149
10119060581
10119068638
10119074070
10119081516
10119087620
10119094151
10119100620
10119106602
10119112766
10119118809
10119124180
10119132237
10119138279
10119144810
10119151218
10119157993
10119164097
10119170322
10119176609
10119183628
10119189915
10119196567
10119203403
10119209873
10119215732
10119221592
10119229160
10119233738
10119239414
10119245518
10119251621
10119257786
10119263889
10119271030
10119277134
10119283359
10119289585
10119296909
10119302524
10119309787
10119315769
10119321689
10119327854
10119333591
10119339756
10119345676
10119353977
10119358921
10119364719
10119370700
10119376316
10119383335
10119390048
10119395969
10119402011
10119408969
10119414645
10119420017
10119426364
10119434360
10119441135
10119447299
10119454440
10119461520
10119468661
10119476718
10119482394
10119491611
10119499850
10119509494
10119517001
10119524081
10119530368
10119537570
10119545688
10119550876
10119558993
10119566745
10119574984
10119582370
10119588534
10119595553
10119603366
10119611666
10119618685
10119627169
10119633700
10119646273
10119652743
10119661471
10119668246
10119677462
10119684176
10119693698
10119700533
10119708590
10119715304
10119721835
10119728365
10119734957
10119741244
10119747408
10119753390
10119759249
10119765292
10119772127
10119778170
10119784579
10119794466
10119800509
10119807711
10119813570
10119819002
10119826388
10119831392
10119838045
10119845125
10119850924
10119857454
10119863253
10119869783
10119875582
10119881807
10119888094
10119893831
10119899752
10119906282
10119912325
10119917757
10119925264
10119929842
10119935518
10119941744
10119949373
10119954073
10119960604
10119965425
10119972322
10119979402
10119985079
10119990450
10119995699
10120002779
10120007784
10120013338
10120019563
10120026338
10120032625
10120039034
10120043794
10120050813
10120055818
10120061983
10120068025
10120074068
10120079500
10120085542
10120092012
10120096284
10120103120
10120110261
10120116365
10120121492
10120127717
10120133027
10120138582
10120144502
10120150728
10120156648
10120161226
10120168977
10120174775
10120180635
10120186189
10120191926
10120197541
10120205232
10120211579
10120217012
10120224946
10120230867
10120237641
10120246308
10120256379
10120291169
10120297700
10120301301
10120309602
10120316010
10120321015
10120326936
10120334504
10120341035
10120346711
10120353425
10120359589
10120364655
10120372346
10120377961
10120384064
10120391450
10120397675
10120403657
10120409638
10120415681
10120423554
10120428925
10120437043
10120442414
10120449799
10120455719
10120462433
10120468354
10120474579
10120483307
10120488007
10120495392
10120500031
10120508026
10120513153
10120519684
10120525360
10120534210
10120540314
10120547272
10120553253
10120558747
10120564667
10120572418
10120579315
10120584809
10120591217
10120597504
10120604218
10120611176
10120616913
10120622284
10120630219
10120635712
10120643951
10120650055
10120656708
10120662994
10120668365
10120675384
10120682159
10120689911
10120696075
10120702301
10120707794
10120714142
10120721893
10120727936
10120735016
10120741241
10120747162
10120753265
10120759002
10120764801
10120770477
10120778717
10120786529
10120792450
10120798553
10120804168
10120810821
10120818023
10120827667
10120832916
10120839691
10120848236
10120855194
10120860321
10120866729
10120873687
10120880401
10120886199
10120894439
10120899749
10120907134
10120913177
10120919280
10120926177
10120934356
10120941314
10120948394
10120953887
10120961089
10120966582
10120973724
10120979156
10120986358
10120991912
10120999663
10121005523
10121013091
10121019195
10121025786
10121031951
10121038238
10121044219
10121051055
10121057525
10121064666
10121071074
10121077727
10121084075
10121089751
10121095794
10121103362
10121109710
10121117827
10121122283
10121130278
10121137664
10121144438
10121153227
10121159514
10121164214
10121174285
10121178923
10121189116
10121196929
10121203398
10121211394
10121217864
10121226408
10121232878
10121241972
10121246733
10121256377
10121262724
10121270171
10121276152
10121284819
10121291655
10121298735
10121303190
10121312163
10121319487
10121326994
10121334257
10121342131
10121347441
10121355192
10121362761
10121369780
10121376799
10121383513
10121392241
10121397734
10121404753
10121411406
10121419584
10121424833
10121431425
10121437162
10121443998
10121450102
10121458402
10121465483
10121471464
10121477567
10121483854
10121490690
10121499113
10121507292
10121516325
10121525480
10121532682
10121540983
10121546659
10121554105
10121559537
10121566556
10121572111
10121580228
10121585538
10121591520
10121598539
10121604276
10121609891
10121615751
10121622037
10121627775
10121633146
10121639310
10121644620
10121649747
10121656827
10121661649
10121669889
10121677213
10121684476
10121693875
10121700467
10121705838
10121711637
10121718961
10121725553
10121732205
10121737332
10121742215
10121747586
10121754544
10121761197
10121766751
10121772916
10121778043
10121782926
10121789945
10121795865
10121802640
10121809293
10121814175
10121820645
10121826505
10121831693
10121836026
10121845181
10121850552
10121857693
10121862576
10121869656
10121875638
10121880826
10121889493
10121897488
10121905057
10121914090
10121920621
10121926785
10121932950
10121937771
10121946499
10121952054
10121958340
10121963772
10121969326
10121974759
10121981533
10121992886
10122004849
10122014065
10122026699
10122037136
10122047329
10122058254
10122065518
10122070950
10122078274
10122084683
10122091885
10122099758
10122107021
10122116055
10122122341
10122128201
10122135464
10122141689
10122149380
10122156460
10122163357
10122168484
10122176662
10122182644
10122190578
10122196255
10122204189
10122209865
10122217800
10122223964
10122229091
10122234462
10122241909
10122249721
10122254726
10122260219
10122267482
10122275295
10122280605
10122286831
10122292934
10122299038
10122305873
10122313442
10122320400
10122326808
10122332851
10122340419
10122344997
10122349513
10122358791
10122366969
10122373134
10122379176
10122385097
10122392177
10122396694
10122403835
10122413112
10122418605
10122426173
10122431972
10122438564
10122444484
10122450099
10122456508
10122464992
10122468959
10122477321
10122484035
10122489162
10122496974
10122503688
10122510890
10122516749
10122522548
10122528651
10122535060
10122540858
10122548243
10122554286
10122561244
10122567958
10122573146
10122580165
10122586085
10122593470
10122599574
10122605738
10122611720
10122618678
10122623255
10122631922
10122635829
10122646388
10122652308
10122660182
10122665675
10122671839
10122678370
10122684596
10122691737
10122698695
10122706629
10122713526
10122719508
10122727930
10122733607
10122741541
10122747156
10122754298
10122762659
10122769678
10122778712
10122785486
10122791773
10122797938
10122803736
10122813563
10122818995
10122825220
10122832300
10122839502
10122844629
10122850611
10122858484
10122865503
10122870264
10122878504
10122884363
10122891809
10122897119
10122904627
10122911768
10122915979
10122924280
10122930872
10122937281
10122944666
10122950220
10122957361
10122962793
10122969507
10122974817
10122982446
10122987756
10122994959
10123001062
10123008936
10123015466
10123024927
10123030786
10123036218
10123046899
10123051660
10123059534
10123066919
10123074914
10123083581
10123088708
10123095178
10123101465
10123108667
10123113244
10123119165
10123125329
10123131433
10123138513
10123144616
10123151269
10123158166
10123163232
10123169030
10123175988
10123182885
10123188928
10123194726
10123200647
10123206018
10123211755
10123218103
10123224755
10123230920
10123236291
10123243920
10123250268
10123255090
10123261865
10123267480
10123274804
10123280541
10123287255
10123292931
10123298547
10123303674
10123310387
10123317284
10123323083
10123328271
10123334863
10123340356
10123345910
10123352929
10123359032
10123366540
10123372704
10123378503
10123384118
10123389794
10123397240
10123403161
10123409630
10123415062
10123421898
10123428124
10123433922
10123439415
10123445824
10123453087
10123457238
10123463952
10123468956
10123475365
10123482262
10123487877
10123492882
10123500389
10123505944
10123511925
10123517357
10123522667
10123528343
10123534386
10123542382
10123547875
10123554222
10123561119
10123565880
10123573204
10123578026
10123583946
10123590965
10123597435
10123603905
10123610191
10123617332
10123622032
10123630089
10123636864
10123642540
10123647545
10123652855
10123657921
10123663109
10123670860
10123677757
10123683311
10123689293
10123695762
10123702415
10123707542
10123713280
10123718712
10123726829
10123733055
10123740013
10123746605
10123754112
10123760276
10123765525
10123771751
10123779869
10123784019
10123791038
10123798118
10123805625
10123810813
10123817832
10123825584
10123831993
10123838523
10123844444
10123850059
10123856162
10123863181
10123869407
10123877586
10123886070
10123893943
10123902305
10123910484
10123920554
10123928855
10123933921
10123941611
10123946799
10123955405
10123963096
10123969993
10123977988
10123983054
10123991538
10123998984
10124006003
10124012656
10124019675
10124027305
10124033225
10124040915
10124047263
10124053550
10124059287
10124065574
10124073203
10124080161
10124087241
10124093528
10124100486
10124107383
10124114035
10124121298
10124128806
10124134177
10124141989
10124148703
10124156516
10124162985
10124170554
10124177939
10124183920
10124189414
10124197226
10124206870
10124213461
10124219016
10124225180
10124231223
10124239096
10124245383
10124251852
10124258993
10124265280
10124272665
10124278342
10124285727
10124292135
10124297873
10124305563
10124313742
10124320273
10124327109
10124333273
10124340963
10124349203
10124356039
10124361593
10124369833
10124377279
10124383993
10124390280
10124396078
10124404867
10124412374
10124418905
10124425497
10124432760
10124440756
10124446127
10124455587
10124461019
10124469686
10124476888
10124484396
10124491049
10124499532
10124507467
10124515096
10124521322
10124529195
10124537984
10124545003
10124553365
10124563680
10124573324
10124582357
10124590230
10124598714
10124606527
10124615743
10124627706
10124633382
10124641378
10124645528
10124656453
10124664266
10124671895
10124678426
10124686361
10124691060
10124700521
10124707051
10124714192
10124720296
10124726888
10124734029
10124740682
10124746053
10124752767
10124759419
10124766377
10124772664
10124779988
10124787740
10124793416
10124799275
10124806966
10124812703
10124820454
10124826192
10124831807
10124837849
10124843526
10124849080
10124856953
10124863362
10124870259
10124877339
10124882405
10124887593
10124892781
10124898823
10124906514
10124912068
10124918416
10124923848
10124928914
10124936055
10124941731
10124947529
10124955098
10124960896
10124968708
10124975178
10124982930
10124988179
10124995259
10125000202
10125007283
10125014118
10125019490
10125025349
10125031758
10125037007
10125042011
10125047688
10125054096
10125059162
10125065693
10125069355
10125075825
10125081989
10125086567
10125092854
10125097920
10125105183
10125111164
10125117390
10125123127
10125128681
10125134235
10125142414
10125148395
10125153706
10125160786
10125165424
10125171467
10125176349
10125185139
10125191303
10125196796
10125201923
10125208027
10125213276
10125219501
10125225849
10125232197
10125237140
10125243000
10125248249
10125254108
10125259906
10125265094
10125274128
10125280170
10125287128
10125293354
10125301776
10125305805
10125314350
10125320148
10125327655
10125334064
10125339801
10125345416
10125351093
10125357501
10125364520
10125371661
10125377521
10125384357
10125389667
10125396014
10125401691
10125412250
10125418903
10125426349
10125431659
10125437335
10125443866
10125449603
10125456378
10125462726
10125469684
10125475604
10125482135
10125488055
10125494159
10125500628
10125505267
10125513446
10125518939
10125526080
10125534137
10125540240
10125545306
10125552081
10125557452
10125567584
10125572711
10125579547
10125584552
10125591571
10125597430
10125603045
10125608905
10125616290
10125622393
10125630267
10125636004
10125642413
10125648089
10125654681
10125661822
10125668292
10125673541
10125680071
10125685259
10125691668
10125698382
10125704302
10125712298
10125717974
10125725787
10125731402
10125736712
10125741717
10125750078
10125757220
10125764727
10125771075
10125778338
10125783953
10125791338
10125795855
10125804217
10125810564
10125817766
10125822344
10125829668
10125834612
10125841692
10125846514
10125854448
10125861528
10125869097
10125875078
10125880999
10125886553
10125892351
10125899553
10125906694
10125913408
10125919329
10125925859
10125931719
10125936785
10125943132
10125950701
10125956560
10125962663
10125969499
10125975115
10125982622
10125988115
10125994463
10126002214
10126008257
10126014299
10126021440
10126026872
10126034074
10126039751
10126046159
10126053850
10126058610
10126067033
10126073930
10126079423
10126085588
10126092729
10126097062
10126105302
10126113603
10126118974
10126127763
10126134050
10126140947
10126148454
10126155412
10126161271
10126169084
10126174882
10126181779
10126189897
10126196794
10126202409
10126209428
10126215898
10126222550
10126230973
10126238053
10126244157
10126250199
10126257646
10126263688
10126271012
10126276933
10126286271
10126291581
10126297868
10126303666
10126309708
10126316544
10126322343
10126329240
10126335526
10126339921
10126345475
10126353837
10126358964
10126365616
10126371049
10126377885
10126383561
10126388566
10126395768
10126401627
10126409012
10126414383
10126420975
10126426285
10126434403
10126441178
10126447709
10126453141
10126458939
10126464493
10126470291
10126476334
10126481644
10126487015
10126492691
10126498001
10126506180
10126512528
10126519730
10126527237
10126532852
10126537857
10126542862
10126548538
10126553726
10126558975
10126566239
10126570450
10126575394
10126581925
10126587418
10126593277
10126598465
10126603226
10126611343
10126617081
10126622513
10126628067
10126633133
10126638321
10126644363
10126649673
10126656875
10126662308
10126666397
10126673111
10126677688
10126683792
10126688431
10126695083
10126699905
10126706863
10126711868
10126717117
10126722244
10126727310
10126734756
10126739517
10126747207
10126751297
10126756546
10126761978
10126768570
10126774734
10126780593
10126785598
10126792007
10126798660
10126803115
10126809646
10126814224
10126822097
10126827529
10126832900
10126838638
10126845535
10126851577
10126856521
10126863357
10126869705
10126875076
10126881545
10126888870
10126894790
10126900466
10126906142
10126913467
10126922073
10126927749
10126933913
10126939956
10126947585
10126951491
10126960769
10126967971
10126976028
10126982253
10126987990
10126994460
10127000991
10127007277
10127014113
10127022292
10127026259
10127033584
10127039443
10127044936
10127052199
10127059157
10127066115
10127071791
10127077956
10127083083
10127090224
10127095412
10127102980
10127109145
10127116164
10127122206
10127128615
10127134230
10127139723
10127145400
10127150649
10127158644
10127165358
10127170058
10127176650
10127182326
10127189284
10127195204
10127200331
10127208876
10127213759
10127219435
10127227248
10127231032
10127239149
10127242995
10127251539
10127260084
10127266005
10127271681
10127277296
10127283034
10127288710
10127295118
10127301100
10127307325
10127313551
10127319594
10127325758
10127332106
10127338148
10127345900
10127353773
10127360792
10127364515
10127372572
10127376356
10127385633
10127392530
10127397779
10127405958
10127412306
10127418470
10127425428
10127432447
10127438734
10127445143
10127452772
10127461561
10127468092
10127474683
10127480970
10127486585
10127492994
10127500135
10127506666
10127513624
10127520521
10127527235
10127534559
10127542005
10127547986
10127555616
10127563306
10127570814
10127577100
10127583265
10127593702
10127600904
10127607313
10127616285
10127622144
10127631177
10127637708
10127643934
10127652356
10127658155
10127665662
10127672681
10127678784
10127686597
10127692884
10127698560
10127703992
10127711988
10127718213
10127725904
10127732007
10127740247
10127746655
10127752454
10127758008
10127764478
10127772961
10127780469
10127785107
10127793652
10127800732
10127806226
10127812146
10127821057
10127827588
10127835889
10127842541
10127849255
10127857129
10127863721
10127870740
10127877637
10127888379
10127896008
10127902295
10127910351
10127916333
10127922802
10127927990
10127933728
10127940258
10127948315
10127953442
10127959179
10127965344
10127970776
10127977063
10127982617
10127987805
10127995312
10128001416
10128006848
10128011608
10128018688
10128024121
10128030224
10128035961
10128042492
10128048351
10128053478
10128059094
10128065563
10128071056
10128077160
10128083935
10128090893
10128096325
10128100658
10128106213
10128112560
10128118420
10128123547
10128131664
10128136364
10128143932
10128148876
10128155773
10128160595
10128166515
10128174450
10128180797
10128187206
10128193065
10128199474
10128203685
10128209301
10128215221
10128221019
10128229076
10128235485
10128240612
10128246837
10128253002
10128258800
10128266796
10128271495
10128278453
10128283397
10128289318
10128294445
10128300304
10128306468
10128312877
10128317638
10128323253
10128328075
10128334178
10128340465
10128345287
10128352977
10128358836
10128364269
10128369579
10128375011
10128381541
10128385936
10128393993
10128400279
10128403819
10128410838
10128415965
10128421886
10128427318
10128434093
10128440135
10128445933
10128452159
10128457347
10128463206
10128468516
10128480052
10128488902
10128497813
10128505748
10128511546
10128518016
10128523875
10128530101
10128536265
10128543467
10128550669
10128555735
10128562815
10128568431
10128574046
10128581675
10128587290
10128594798
10128600596
10128606272
10128611582
10128617198
10128623973
10128631846
10128637156
10128644114
10128649058
10128654917
10128661387
10128667368
10128672678
10128679575
10128685496
10128693003
10128698801
10128704966
10128710764
10128715891
10128721629
10128729929
10128736155
10128743052
10128749338
10128754893
10128761118
10128768015
10128774363
10128780344
10128788889
10128794809
10128804331
10128812510
10128818186
10128826731
10128833811
10128841440
10128846262
10128852304
10128860544
10128867746
10128878061
10128888925
10128895456
10128902048
10128907785
10128913462
10128919077
10128925852
10128934458
10128940195
10128945749
10128952463
10128958017
10128962961
10128970468
10128975961
10128983041
10128989389
10128996347
10129002267
10129007944
10129013803
10129020456
10129024606
10129033029
10129039194
10129046152
10129051889
10129057260
10129063058
10129069894
10129076730
10129082162
10129088266
10129095712
10129102121
10129108712
10129114938
10129120614
10129129770
10129135263
10129141549
10129147287
10129153512
10129159921
10129166268
10129173471
10129182748
10129187997
10129194161
10129200326
10129207345
10129214303
10129220773
10129227975
10129234933
10129242440
10129248666
10129253549
10129260140
10129267465
10129274484
10129281258
10129289254
10129296212
10129303109
10129310738
10129317696
10129323678
10129330636
10129336922
10129344247
10129351143
10129358346
10129365121
10129372017
10129377999
10129383980
10129392281
10129399300
10129408272
10129416024
10129424019
10129431099
10129437691
10129443734
10129452278
10129459236
10129467476
10129474678
10129482552
10129488594
10129495735
10129502571
10129510933
10129517159
10129524971
10129531014
10129538460
10129543953
10129551582
10129557259
10129562996
10129571541
10129578499
10129584236
10129590096
10129594917
10129601997
10129606941
10129612862
10129620552
10129627327
10129633186
10129638313
10129643989
10129650520
10129656135
10129662422
10129668831
10129674446
10129680000
10129686043
10129691597
10129697639
10129703071
10129708381
10129716255
10129721443
10129726936
10129733284
10129738960
10129743232
10129750434
10129755622
10129763191
10129768501
10129775154
10129780220
10129786140
10129790840
10129797126
10129801887
10129809089
10129814826
10129820320
10129825324
10129831245
10129836311
10129840888
10129848213
10129854316
10129859321
10129863654
10129869575
10129874091
10129880561
10129885505
10129893195
10129898444
10129903693
10129908637
10129914497
10129919501
10129925178
10129932807
10129937873
10129943793
10129948127
10129954597
10129958991
10129965522
10129971564
10129977241
10129983588
10129987678
10129994941
10130001288
10130007392
10130017341
10130024360
10130030341
10130037360
10130043830
10130049628
10130057135
10130065009
10130071112
10130077277
10130084601
10130092108
10130096991
10130104254
10130111273
10130117438
10130124274
10130129218
10130135443
10130142401
10130147894
10130154364
10130160468
10130166022
10130175543
10130183112
10130188788
10130193732
10130203253
10130211554
10130218146
10130224676
10130231879
10130239569
10130245550
10130253546
10130260382
10130265509
10130273810
10130279547
10130286078
10130293829
10130301153
10130307867
10130313421
10130319647
10130326910
10130332220
10130340155
10130347784
10130352667
10130360235
10130365240
10130372625
10130379095
10130385931
10130393621
10130399114
10130407781
10130415106
10130421575
10130428106
10130435003
10130440740
10130448065
10130454839
10130460088
10130467779
10130474187
10130481512
10130489385
10130494939
10130501226
10130507024
10130515447
10130520879
10130530096
10130535650
10130543279
10130550786
10130557683
10130565069
10130571782
10130578496
10130585149
10130592473
10130599065
10130607732
10130614141
10130622258
10130629094
10130635259
10130642339
10130649175
10130657598
10130661687
10130670476
10130676946
10130684697
10130691106
10130697454
10130703252
10130708928
10130716496
10130721990
10130729863
10130736028
10130742192
10130747685
10130754826
10130763432
10130769658
10130776677
10130784123
10130791020
10130797307
10130803288
10130811650
10130818608
10130824773
10130830632
10130838689
10130844670
10130852238
10130858464
10130865727
10130871769
10130879704
10130885563
10130894230
10130900334
10130907414
10130913578
10130921513
10130929997
10130937077
10130942875
10130950505
10130959660
10130966923
10130972721
10130980107
10130987126
10130994633
10131003361
10131011173
10131017338
10131025761
10131033268
10131040959
10131048893
10131056400
10131063236
10131070744
10131078617
10131086124
10131091862
10131098576
10131107853
10131116093
10131122684
10131130070
10131137333
10131143802
10131155094
10131164982
10131175052
10131183841
10131193424
10131203495
10131210148
10131217228
10131223209
10131229557
10131235477
10131243228
10131249088
10131255008
10131262393
10131270450
10131275272
10131282474
10131288150
10131295413
10131300662
10131308536
10131314762
10131321842
10131328372
10131334049
10131342593
10131348270
10131354251
10131362003
10131368472
10131375797
10131381900
10131387088
10131395023
10131400821
10131406924
10131412662
10131418704
10131425845
10131431766
10131438296
10131444522
10131449527
10131455264
10131462710
10131468509
10131472964
10131478640
10131486148
10131493228
10131498721
10131504641
10131510440
10131516360
10131521914
10131528506
10131534243
10131540591
10131546817
10131551699
10131558047
10131564639
10131569583
10131576785
10131582949
10131587222
10131593264
10131599734
10131603945
10131613589
10131620608
10131626956
10131632327
10131638247
10131644534
10131650271
10131656985
10131662722
10131669009
10131674624
10131681399
10131687197
10131693484
10131699404
10131706240
10131712221
10131719179
10131724489
10131731081
10131737490
10131742251
10131748965
10131755617
10131763369
10131769228
10131774843
10131782168
10131786989
10131794069
10131800051
10131806215
10131812136
10131818911
10131824770
10131830690
10131836977
10131845278
10131856081
10131862306
10131868959
10131876222
10131882997
10131889101
10131896425
10131903017
10131909242
10131918459
10131923830
10131931520
10131937319
10131943727
10131952150
10131958437
10131964967
10131971193
10131978761
10131985170
10131989992
10131996156
10132004152
10132012331
10132018068
10132026735
10132032411
10132039918
10132046083
10132052492
10132058656
10132065187
10132071290
10132078431
10132084718
10132090822
10132097047
10132103761
10132110109
10132117921
10132124025
10132130372
10132136598
10132143190
10132149293
10132154908
10132161073
10132168702
10132174867
10132181214
10132187379
10132192933
10132199037
10132205079
10132213136
10132218995
10132225160
10132232423
10132238648
10132244325
10132250489
10132257325
10132266114
10132270936
10132277222
10132285523
10132291993
10132296815
10132303101
10132309571
10132316712
10132323731
10132330262
10132336060
10132343262
10132348694
10132355103
10132360047
10132368531
10132373963
10132381165
10132386597
10132393433
10132401368
10132405762
10132414612
10132422181
10132428467
10132436768
10132442749
10132447266
10132456482
10132463684
10132469178
10132478821
10132484925
10132491638
10132496887
10132503845
10132512085
10132520203
10132527100
10132534424
10132542114
10132548950
10132555420
10132562622
10132571899
10132578308
10132586365
10132593384
10132600830
10132607666
10132616821
10132623596
10132630676
10132637634
10132643005
10132649902
10132657532
10132662719
10132671081
10132677917
10132683838
10132690796
10132698059
10132704895
10132713256
10132719970
10132726684
10132733459
10132739440
10132746398
10132754638
10132763122
10132771667
10132778564
10132786132
10132793029
10132800720
10132807678
10132814086
10132821472
10132829040
10132836303
10132843017
10132850524
10132856872
10132863342
10132872131
10132878783
10132887389
10132894042
10132900939
10132907409
10132914306
10132922729
10132929626
10132937743
10132942626
10132951354
10132956603
10132965087
10132972899
10132977721
10132983825
10132990844
10132997252
10133003051
10133009032
10133015441
10133021422
10133027159
10133035033
10133039672
10133046141
10133053771
10133059569
10133064147
10133070067
10133077513
10133084105
10133088805
10133095336
10133102110
10133108214
10133114989
10133120543
10133127379
10133133116
10133138365
10133145812
10133153197
10133159361
10133165465
10133171019
10133177000
10133184019
10133189879
10133196532
10133202391
10133209654
10133217100
10133221983
10133228575
10133236326
10133242308
10133249998
10133255858
10133261290
10133267210
10133272520
10133279966
10133286253
10133292479
10133297239
10133302977
10133309019
10133313536
10133319761
10133324583
10133331480
10133337034
10133342527
10133347776
10133353331
10133358274
10133364195
10133370115
10133376219
10133382139
10133386534
10133393003
10133397703
10133402952
10133407835
10133416136
10133421934
10133428465
10133433775
10133438657
10133445310
10133450925
10133457883
10133463926
10133467283
10133474302
10133479551
10133485532
10133491209
10133496274
10133504514
10133510129
10133515623
10133520811
10133525999
10133532712
10133537900
10133544126
10133551206
10133557004
10133562375
10133568296
10133574827
10133580625
10133587095
10133594419
10133599302
10133605222
10133612912
10133618528
10133625180
10133629209
10133636411
10133645444
10133650876
10133656613
10133663816
10133669187
10133674253
10133681882
10133688046
10133694516
10133700803
10133707150
10133713010
10133719113
10133724851
10133732297
10133739438
10133746640
10133753598
10133758237
10133764096
10133772458
10133778378
10133784482
10133792355
10133798215
10133804257
10133809994
10133817441
10133823666
10133831174
10133838315
10133844418
10133850033
10133859921
10133865231
10133871823
10133878109
10133883664
10133892453
10133898556
10133905453
10133911007
10133916195
10133923397
10133928768
10133935055
10133941830
10133947628
10133953732
10133961056
10133965756
10133971554
10133979122
10133987667
10133992977
10133999203
10134004208
10134011227
10134016293
10134022640
10134028011
10134036617
10134042538
10134047421
10134054684
10134059566
10134065182
10134071957
10134079281
10134086117
10134091854
10134099361
10134105160
10134110531
10134117061
10134121883
10134132015
10134137447
10134144649
10134150265
10134157589
10134163082
10134170833
10134176815
10134184749
10134191280
10134196407
10134202022
10134209407
10134215023
10134222652
10134228389
10134236812
10134241268
10134252132
10134259761
10134266597
10134273738
10134281063
10134288021
10134296260
10134303279
10134310909
10134317928
10134323543
10134332210
10134337581
10134346736
10134352962
10134359676
10134368159
10134375301
10134381038
10134387996
10134395564
10134406245
10134413142
10134423518
10134431453
10134439998
10134446040
10134453975
10134460627
10134467891
10134477534
10134486140
10134492366
10134499018
10134504512
10134511592
10134521662
10134529353
10134535945
10134541499
10134547908
10134554072
10134562312
10134567988
10134575923
10134583247
10134590022
10134596064
10134602717
10134609919
10134615168
10134620966
10134627619
10134633845
10134639704
10134647395
10134654231
10134659846
10134667597
10134673579
10134679682
10134685602
10134691462
10134696894
10134702997
10134708430
10134714228
10134720026
10134726618
10134732477
10134738581
10134744135
10134749445
10134754999
10134761103
10134767084
10134772272
10134777765
10134784113
10134789789
10134795649
10134802546
10134806879
10134815424
10134820551
10134825983
10134831781
10134837030
10134841425
10134848444
10134854181
10134860712
10134866388
10134871332
10134877619
10134881830
10134886896
10134893305
10134900751
10134905390
10134911310
10134915582
10134921625
10134926019
10134931635
10134938837
10134944879
10134950433
10134955255
10134960260
10134965875
10134970819
10134976678
10134982904
10134989557
10134994806
10134998895
10135004022
10135010492
10135016107
10135023553
10135030633
10135036615
10135041620
10135046991
10135053399
10135060724
10135067804
10135073358
10135079278
10135086236
10135092279
10135097833
10135104608
10135109918
10135115411
10135122552
10135127496
10135133599
10135139276
10135145379
10135148675
10135156365
10135163140
10135169000
10135174371
10135180413
10135186761
10135192437
10135198113
10135205071
10135212457
10135218804
10135225335
10135231133
10135237176
10135242913
10135247857
10135255791
10135262810
10135268975
10135274102
10135280938
10135286065
10135292657
10135298211
10135305840
10135311089
10135318596
10135324273
10135329339
10135334588
10135342766
10135348870
10135355828
10135362237
10135368401
10135374138
10135380608
10135386223
10135392571
10135399102
10135404229
10135409905
10135416558
10135422234
10135427361
10135434685
10135441643
10135448113
10135453667
10135461479
10135466606
10135473564
10135478752
10135485588
10135491081
10135498833
10135504936
10135510002
10135515007
10135522209
10135527336
10135534416
10135540764
10135547295
10135553520
10135560051
10135565849
10135570915
10135576897
10135584465
10135590446
10135596977
10135603569
10135611198
10135620659
10135625908
10135634453
10135641777
10135648124
10135655143
10135662162
10135669548
10135675041
10135680656
10135687370
10135697441
10135702262
10135708061
10135714103
10135719963
10135726493
10135732231
10135736808
10135745903
10135751335
10135757621
10135762626
10135769279
10135776237
10135782279
10135788322
10135796256
10135802055
10135808280
10135813834
10135821281
10135827262
10135835197
10135840873
10135850333
10135857352
10135863944
10135870353
10135875602
10135881278
10135889518
10135897147
10135904105
10135911002
10135917594
10135923942
10135928885
10135936698
10135942435
10135948539
10135957206
10135964164
10135969901
10135977897
10135985099
10135991935
10135998587
10136006278
10136014762
10136020316
10136027884
10136035086
10136043875
10136049124
10136056510
10136065726
10136072013
10136079032
10136090689
10136096182
10136103690
10136111502
10136119009
10136127127
10136135855
10136142508
10136149039
10136156546
10136162772
10136170828
10136177603
10136186270
10136193228
10136200491
10136205984
10136212881
10136221060
10136227163
10136232962
10136239920
10136247976
10136253897
10136258780
10136266531
10136270926
10136278372
10136285757
10136293570
10136299795
10136305227
10136310720
10136316763
10136322805
10136329214
10136336355
10136342459
10136348135
10136354910
10136363760
10136368948
10136375784
10136381826
10136389517
10136395681
10136402700
10136408254
10136415334
10136420950
10136428274
10136435476
10136440176
10136446767
10136453115
10136458730
10136463308
10136469717
10136474660
10136482168
10136487844
10136493215
10136499319
10136505239
10136510427
10136515981
10136522817
10136527395
10136532583
10136539602
10136545034
10136549428
10136555837
10136561025
10136568654
10136573964
10136579213
10136584218
10136602956
10136609243
10136615041
10136621205
10136626210
10136632192
10136637258
10136643972
10136649526
10136654408
10136661061
10136665212
10136672292
10136676564
10136683278
10136689565
10136695607
10136700490
10136706288
10136711110
10136718312
10136723439
10136728566
10136735524
10136740712
10136748097
10136754445
10136760487
10136767567
10136774098
10136780629
10136788136
10136794789
10136799977
10136807423
10136812550
10136818287
10136825673
10136833058
10136837086
10136845204
10136852101
10136860096
10136865956
10136871449
10136879994
10136886158
10136895436
10136903187
10136909230
10136914845
10136922535
10136929920
10136936940
10136942982
10136947926
10136954334
10136959400
10136966847
10136972340
10136980274
10136986439
10136991932
10136997669
10137004200
10137010243
10137016895
10137023731
10137030079
10137036182
10137043140
10137048573
10137055042
10137060657
10137065052
10137073292
10137079090
10137086353
10137091358
10137098316
10137104053
10137110401
10137117237
10137124378
10137130298
10137135486
10137142688
10137147693
10137155018
10137160572
10137166675
10137173328
10137179309
10137185657
10137192066
10137196521
10137202259
10137208667
10137217762
10137223438
10137229908
10137235095
10137242664
10137247669
10137253589
10137259265
10137266590
10137272266
10137279407
10137284351
10137291492
10137297168
10137303150
10137309314
10137315601
10137321948
10137328479
10137334766
10137340564
10137346728
10137352771
10137358569
10137367969
10137374744
10137379993
10137386157
10137392261
10137398608
10137405566
10137412158
10137419787
10137426379
10137431384
10137437610
10137444995
10137451709
10137458667
10137467212
10137475329
10137482165
10137488025
10137494311
10137501513
10137508471
10137516772
10137523608
10137531359
10137537524
10137544909
10137552050
10137559374
10137565356
10137573718
10137582140
10137589037
10137594592
10137602465
10137607897
10137614123
10137621569
10137625719
10137633837
10137640612
10137647875
10137654223
10137661059
10137667345
10137673876
10137681689
10137689013
10137695605
10137701891
10137708422
10137714709
10137721483
10137729296
10137734240
10137743273
10137750597
10137758349
10137762621
10137771471
10137775744
10137784594
10137791185
10137799852
10137806322
10137812914
10137819139
10137826403
10137834093
10137840990
10137847338
10137854051
10137861925
10137868700
10137874071
10137879808
10137885912
10137891649
10137898973
10137905565
10137910753
10137917345
10137922228
10137928697
10137933763
10137939806
10137947069
10137954515
10137960557
10137966661
10137972276
10137978075
10137985155
10137990343
10137996385
10138003160
10138009508
10138015855
10138021837
10138030443
10138036851
10138042039
10138049852
10138055772
10138061204
10138066331
10138073716
10138079698
10138086656
10138092515
10138099351
10138105455
10138110643
10138116380
10138123094
10138128282
10138134141
10138142076
10138147141
10138153916
10138158799
10138165574
10138170640
10138175462
10138183335
10138189378
10138194993
10138201035
10138206284
10138212693
10138217698
10138224229
10138230454
10138236069
10138242234
10138248704
10138253587
10138258713
10138264390
10138270249
10138276963
10138282151
10138287156
10138292039
10138297837
10138302842
10138307664
10138315232
10138320908
10138327622
10138332322
10138338974
10138343552
10138349717
10138354844
10138361802
10138367783
10138374131
10138379563
10138385178
10138390488
10138396103
10138403366
10138408310
10138416001
10138423386
10138428635
10138436325
10138442185
10138448593
10138456101
10138462326
10138469467
10138475693
10138481796
10138488083
10138494125
10138502304
10138507553
10138513474
10138521896
10138530136
10138535446
10138543503
10138549728
10138555405
10138561508
10138567428
10138573105
10138579086
10138584762
10138591171
10138597824
10138604965
10138611923
10138619064
10138626022
10138633713
10138638962
10138646957
10138653244
10138659530
10138664657
10138672348
10138677291
10138684616
10138690902
10138696334
10138704513
10138712448
10138717819
10138724838
10138730758
10138738326
10138746444
10138753951
10138760360
10138767745
10138775009
10138783187
10138789291
10138795944
10138802963
10138809432
10138815902
10138822189
10138830306
10138836959
10138842940
10138851668
10138856490
10138862655
10138870101
10138876327
10138883346
10138887313
10138895614
10138901900
10138907516
10138915267
10138920455
10138926436
10138931563
10138939071
10138944564
10138951095
10138956405
10138963485
10138969161
10138975203
10138980819
10138987288
10138993270
10138998641
10139006148
10139011092
10139019759
10139025557
10139032210
10139038069
10139047713
10139054671
10139060469
10139065840
10139072249
10139080306
10139085738
10139091780
10139099776
10139105696
10139112227
10139117842
10139125838
10139131392
10139138228
10139144453
10139152937
10139159590
10139165449
10139171187
10139179182
10139185225
10139193220
10139199995
10139207014
10139213423
10139220686
10139226240
10139233259
10139242048
10139246443
10139254927
10139264204
10139269880
10139276716
10139283064
10139290083
10139296919
10139303938
10139311628
10139317488
10139326704
10139332380
10139341047
10139348676
10139355940
10139362837
10139370588
10139378278
10139385114
10139393110
10139402631
10139410078
10139415937
10139422773
10139430036
10139437727
10139446455
10139453352
10139460126
10139466596
10139473798
10139480878
10139488325
10139495893
10139503522
10139510541
10139517011
10139523359
10139528913
10139534833
10139541669
10139548993
10139555158
10139560712
10139567792
10139573346
10139579755
10139583356
10139590497
10139598249
10139603437
10139609967
10139614972
10139621442
10139626203
10139632001
10139638593
10139646222
10139651898
10139657330
10139662824
10139668439
10139673322
10139680646
10139686688
10139692914
10139698895
10139704694
10139710187
10139716840
10139722394
10139727887
10139734601
10139741498
10139746930
10139752728
10139758160
10139764264
10139771344
10139776715
10139784100
10139789899
10139795880
10139801190
10139806927
10139812420
10139817364
10139825177
10139829815
10139836895
10139842450
10139848004
10139853314
10139859845
10139865216
10139871685
10139878277
10139884014
10139889141
10139895489
10139901593
10139907269
10139913311
10139919293
10139923687
10139929486
10139935772
10139945477
10139952496
10139958111
10139963116
10139969036
10139978253
10139985394
10139991253
10139997234
10140003033
10140010906
10140017437
10140023418
10140032024
10140038067
10140044170
10140050701
10140058208
10140067364
10140072979
10140079082
10140084759
10140091778
10140099651
10140103985
10140111858
10140119671
10140125042
10140131695
10140136882
10140142803
10140149883
10140157329
10140164287
10140169963
10140177959
10140182781
10140190166
10140197551
10140204143
10140209514
10140216472
10140223186
10140229289
10140237651
10140244060
10140250774
10140256633
10140262859
10140269573
10140274028
10140282756
10140289470
10140294414
10140301189
10140307780
10140314494
10140321269
10140328349
10140334392
10140341045
10140346477
10140353557
10140359965
10140367351
10140373820
10140380046
10140387370
10140394450
10140398784
10140407268
10140415935
10140421245
10140427897
10140434733
10140440287
10140446025
10140453776
10140463176
10140469828
10140479777
10140486003
10140491801
10140499613
10140506327
10140517497
10140523173
10140530741
10140536112
10140546977
10140552165
10140559550
10140564982
10140571940
10140577921
10140586100
10140593607
10140599284
10140604411
10140611369
10140618510
10140624796
10140630778
10140637919
10140645304
10140652262
10140658060
10140664530
10140673136
10140681132
10140686686
10140701639
10140706583
10140715738
10140722574
10140728800
10140734354
10140742411
10140751505
