9957109885
9957115684
9957120749
9957126243
9957132102
9957136985
9957143393
9957148948
9957153769
9957158530
9957163779
9957167380
9957173362
9957179221
9957185019
9957189963
9957196799
9957202964
9957209067
9957216025
9957221396
9957229087
9957233725
9957241110
9957247214
9957252951
9957260642
9957267417
9957274497
9957280173
9957287863
9957295737
9957304831
9957311118
9957317709
9957325583
9957334433
9957344015
9957350668
9957357626
9957365988
9957372153
9957381308
9957389609
9957396384
9957405600
9957412253
9957420798
9957428061
9957436239
9957442587
9957450888
9957459921
9957473104
9957485922
9957494101
9957503195
9957511618
9957521505
9957529257
9957537741
9957545919
9957552084
9957559469
9957566183
9957573934
9957582418
9957589376
9957596029
9957603170
9957610677
9957617696
9957624715
9957633566
9957639669
9957649679
9957655904
9957663229
9957672323
9957679952
9957686666
9957696798
9957703206
9957711080
9957718465
9957725179
9957734212
9957740621
9957749532
9957756734
9957764119
9957771505
9957779256
9957789022
9957796834
9957803548
9957812032
9957820088
9957828511
9957836934
9957844258
9957852498
9957857259
9957865499
9957873799
9957881795
9957888509
9957897176
9957904561
9957912740
9957918782
9957927754
9957933980
9957943623
9957951131
9957958638
9957965596
9957973042
9957981160
9957992879
9957997883
9958008381
9958018025
9958024434
9958036580
9958043660
9958052754
9958059773
9958067646
9958076008
9958083271
9958088093
9958099690
9958108479
9958114399
9958124226
9958130635
9958138325
9958144673
9958156269
9958163716
9958170674
9958178242
9958185139
9958190937
9958197834
9958208759
9958214924
9958222492
9958228291
9958236164
9958242084
9958250446
9958257282
9958266010
9958273762
9958280781
9958284870
9958294452
9958301960
9958308918
9958318134
9958324116
9958332233
9958339924
9958346576
9958352008
9958360553
9958366779
9958377155
9958381855
9958390216
9958396076
9958404499
9958412006
9958419025
9958426715
9958433979
9958441608
9958448688
9958454914
9958461810
9958470233
9958478351
9958486713
9958493732
9958500140
9958505756
9958514117
9958520648
9958528644
9958536517
9958544025
9958551593
9958559100
9958566913
9958574786
9958582233
9958589740
9958600177
9958606769
9958615619
9958621661
9958630206
9958636126
9958644793
9958652484
9958661029
9958665789
9958676104
9958681292
9958689837
9958703021
9958709552
9958719744
9958725909
9958734637
9958742022
9958750750
9958755145
9958765276
9958775408
9958783282
9958791460
9958800127
9958809039
9958816668
9958827044
9958831805
9958844012
9958851092
9958858233
9958867510
9958876482
9958885515
9958890032
9958901568
9958908465
9958915667
9958921831
9958928911
9958935381
9958943132
9958950457
9958956682
9958964800
9958970598
9958979387
9958986101
9958992815
9959001360
9959008135
9959015764
9959022112
9959029619
9959034868
9959042009
9959050249
9959058733
9959065874
9959072893
9959079729
9959086809
9959094377
9959101457
9959110674
9959117265
9959125566
9959132829
9959141923
9959150346
9959157670
9959167131
9959174028
9959181840
9959188310
9959195390
9959201982
9959209550
9959215593
9959224565
9959231950
9959238725
9959247758
9959253679
9959261857
9959267839
9959279191
9959286393
9959294572
9959302629
9959308488
9959317521
9959325212
9959332170
9959341203
9959348649
9959356156
9959363419
9959373307
9959377946
9959390580
9959397416
9959404618
9959411332
9959418351
9959424943
9959431962
9959439713
9959448685
9959456681
9959463883
9959469437
9959475846
9959481522
9959490494
9959496659
9959505692
9959509598
9959518021
9959521866
9959531022
9959541214
9959547562
9959556290
9959560563
9959568802
9959575150
9959582779
9959589981
9959596451
9959603348
9959609574
9959616471
9959622208
9959627518
9959635697
9959642716
9959648819
9959655045
9959661453
9959668656
9959673782
9959682083
9959688797
9959694901
9959701492
9959707596
9959714249
9959720291
9959728897
9959736343
9959742081
9959748550
9959754776
9959761856
9959765701
9959774795
9959782974
9959790787
9959796768
9959804275
9959810806
9959817764
9959826675
9959838333
9959843826
9959852310
9959856704
9959864944
9959868972
9959878616
9959885513
9959891983
9959899429
9959906997
9959914260
9959917983
9959927444
9959934524
9959941055
9959947097
9959953262
9959960647
9959967544
9959977371
9959982925
9959990554
9959996475
9960004104
9960010696
9960017959
9960022475
9960032424
9960042922
9960050246
9960056838
9960064406
9960071609
9960078567
9960086867
9960095107
9960102309
9960108108
9960117263
9960125075
9960132399
9960137404
9960148208
9960156081
9960163771
9960172133
9960179580
9960188613
9960193557
9960204177
9960211379
9960218459
9960226088
9960233534
9960240920
9960248305
9960257887
9960263320
9960274001
9960280348
9960289076
9960294386
9960302565
9960307997
9960318800
9960326491
9960334181
9960341383
9960349562
9960357191
9960363722
9960372816
9960379286
9960388991
9960395765
9960402052
9960410170
9960417311
9960424208
9960431654
9960438063
9960446791
9960453627
9960460890
9960467237
9960476576
9960481520
9960492933
9960498793
9960508192
9960512831
9960521681
9960526258
9960536573
9960546278
9960554640
9960561414
9960569044
9960576429
9960584425
9960592786
9960599134
9960609327
9960615736
9960623975
9960629896
9960639783
9960645887
9960654249
9960659925
9960670606
9960677686
9960685254
9960691785
9960699476
9960707166
9960714917
9960721692
9960731458
9960737806
9960744458
9960751416
9960758374
9960764234
9960770887
9960777967
9960783094
9960789685
9960795728
9960801099
9960807202
9960812696
9960821301
9960828137
9960834668
9960840894
9960848035
9960853894
9960861707
9960868970
9960876355
9960882886
9960888013
9960894055
9960899609
9960904797
9960912122
9960918286
9960924573
9960930859
9960936902
9960942090
9960948437
9960955029
9960960705
9960965832
9960973340
9960978833
9960984448
9960990857
9960995923
9961002331
9961007947
9961014538
9961019604
9961025586
9961034558
9961039807
9961045117
9961050915
9961056286
9961062634
9961069104
9961074658
9961080273
9961085827
9961092236
9961096447
9961104077
9961107312
9961115612
9961120373
9961126599
9961133740
9961139538
9961144909
9961151745
9961158459
9961165661
9961172253
9961178112
9961182995
9961187817
9961195751
9961201550
9961207897
9961214977
9961220043
9961225903
9961232372
9961238537
9961246227
9961251537
9961258678
9961262096
9961270153
9961278026
9961284496
9961290050
9961295543
9961303600
9961309459
9961315319
9961322948
9961328563
9961336437
9961339916
9961347606
9961354381
9961361705
9961368419
9961373668
9961382396
9961388622
9961397838
9961404857
9961410594
9961418224
9961425487
9961431957
9961437877
9961443370
9961450633
9961457591
9961464183
9961470897
9961477245
9961483592
9961488719
9961496165
9961503978
9961509776
9961517772
9961522716
9961530833
9961537486
9961543773
9961550548
9961555919
9961564342
9961570689
9961576671
9961583201
9961589854
9961597545
9961601756
9961608836
9961613780
9961621287
9961628001
9961634288
9961641551
9961647471
9961654002
9961660289
9961667430
9961674754
9961680674
9961687022
9961693248
9961700877
9961706431
9961711863
9961717356
9961724986
9961732798
9961739390
9961745616
9961752024
9961758677
9961766856
9961772776
9961779429
9961785471
9961792002
9961798045
9961804087
9961810740
9961816477
9961821787
9961831003
9961837961
9961844492
9961851328
9961857310
9961866038
9961872385
9961880686
9961886912
9961895151
9961902598
9961909800
9961915293
9961924692
9961932383
9961940012
9961947519
9961953135
9961962107
9961967600
9961975717
9961982004
9961992075
9961998850
9962007212
9962014292
9962021494
9962028452
9962035227
9962042490
9962049326
9962055551
9962063608
9962070810
9962078378
9962085214
9962091806
9962101877
9962109628
9962116037
9962122934
9962129709
9962136423
9962142526
9962149118
9962158273
9962162973
9962171091
9962175973
9962185251
9962193551
9962199777
9962211862
9962222665
9962233590
9962243051
9962249826
9962255380
9962264291
9962272470
9962279061
9962286203
9962293344
9962300546
9962307443
9962313973
9962318429
9962328439
9962333261
9962340707
9962346078
9962351327
9962354318
9962362679
9962370187
9962374398
9962380868
9962387887
9962393563
9962400033
9962405282
9962412789
9962418587
9962423897
9962428475
9962435372
9962441048
9962447640
9962453866
9962459664
9962465096
9962471261
9962477120
9962482857
9962487313
9962494942
9962500252
9962505867
9962511666
9962516854
9962521431
9962526925
9962534127
9962540657
9962546456
9962551827
9962556221
9962562447
9962570504
9962575753
9962582650
9962588814
9962594002
9962601204
9962606636
9962613838
9962618294
9962625374
9962630501
9962635567
9962642342
9962648018
9962654305
9962660713
9962665718
9962671883
9962676338
9962682686
9962688850
9962695320
9962700935
9962706123
9962711739
9962717232
9962723946
9962729256
9962737862
9962744270
9962749763
9962755684
9962760933
9962766365
9962772774
9962778694
9962783760
9962790291
9962796089
9962801643
9962808601
9962812996
9962821174
9962827461
9962833686
9962839973
9962845955
9962852058
9962858039
9962866523
9962872200
9962879219
9962885200
9962891670
9962899238
9962904426
9962913337
9962919013
9962927009
9962933235
9962939582
9962946052
9962951728
9962960395
9962966499
9962972419
9962978034
9962984992
9962991401
9962998481
9963005073
9963010505
9963017402
9963023078
9963029243
9963036506
9963042609
9963049384
9963056708
9963062079
9963067267
9963074958
9963080329
9963087104
9963093940
9963100593
9963108100
9963112800
9963120856
9963126471
9963133429
9963139228
9963147895
9963154853
9963160895
9963168586
9963173529
9963180548
9963186957
9963194709
9963199835
9963206977
9963212958
9963219367
9963225958
9963231391
9963239325
9963245368
9963251410
9963258246
9963264227
9963270270
9963277411
9963285162
9963289801
9963298529
9963304755
9963310187
9963317816
9963321112
9963328253
9963335577
9963342169
9963349127
9963354864
9963362066
9963370306
9963374762
9963382391
9963387579
9963395636
9963402533
9963407965
9963416449
9963422369
9963429571
9963436834
9963443670
9963450262
9963457220
9963465460
9963470648
9963478277
9963486761
9963494329
9963500555
9963505987
9963514593
9963521307
9963529791
9963535955
9963543279
9963549322
9963557928
9963564703
9963572820
9963579290
9963587469
9963594427
9963601507
9963606268
9963614996
9963620489
9963631536
9963637945
9963644903
9963651800
9963658819
9963661321
9963671209
9963679204
9963686040
9963694341
9963702092
9963708684
9963715947
9963725530
9963735112
9963742620
9963750371
9963757329
9963765447
9963772100
9963781865
9963789983
9963795415
9963804631
9963811101
9963819036
9963824895
9963833623
9963838262
9963848760
9963856999
9963864568
9963870976
9963878178
9963884221
9963891545
9963898747
9963905888
9963913213
9963919255
9963926152
9963931645
9963938115
9963944585
9963949345
9963957097
9963963139
9963968937
9963975529
9963982243
9963987980
9963994755
9964000309
9964006657
9964012455
9964019413
9964025212
9964033024
9964038884
9964044743
9964051884
9964056218
9964062687
9964069645
9964076237
9964082218
9964089787
9964096501
9964102543
9964107548
9964112248
9964120609
9964125858
9964132023
9964138615
9964144047
9964149784
9964155216
9964162968
9964168339
9964172733
9964179264
9964185368
9964190739
9964197697
9964202457
9964209049
9964214420
9964221378
9964226688
9964231876
9964239200
9964244633
9964250492
9964256473
9964261478
9964266666
9964272587
9964278019
9964284061
9964290348
9964296268
9964303287
9964308902
9964315494
9964322330
9964329532
9964334903
9964341251
9964347965
9964354190
9964360782
9964365970
9964371830
9964378788
9964382694
9964389530
9964394412
9964402469
9964407962
9964414127
9964420902
9964426883
9964432437
9964438358
9964445133
9964452762
9964457950
9964462894
9964470157
9964473819
9964481754
9964490421
9964497317
9964502872
9964510928
9964516788
9964524173
9964531375
9964537417
9964542544
9964550540
9964556949
9964563540
9964569766
9964576602
9964583133
9964589724
9964595523
9964603030
9964609500
9964614383
9964621402
9964628482
9964633853
9964641360
9964647769
9964653628
9964659121
9964665530
9964672915
9964680239
9964685916
9964690859
9964697817
9964702822
9964711855
9964718203
9964725100
9964731570
9964737307
9964744143
9964749819
9964757082
9964763674
9964768618
9964776186
9964781802
9964788943
9964796145
9964800661
9964809634
9964814577
9964822024
9964828615
9964835207
9964841616
9964849001
9964856264
9964860903
9964869143
9964877627
9964882631
9964890261
9964897402
9964904055
9964908388
9964915590
9964922609
9964929262
9964935915
9964945192
9964951540
9964957216
9964963991
9964970339
9964975405
9964983095
9964989809
9964995790
9965002077
9965008119
9965014223
9965020632
9965026491
9965030885
9965039552
9965046449
9965053529
9965061098
9965068544
9965075746
9965083376
9965090150
9965097719
9965105226
9965112611
9965120485
9965127199
9965134218
9965143678
9965151613
9965158449
9965164796
9965172853
9965179445
9965187928
9965195131
9965202150
9965209291
9965216859
9965224855
9965230775
9965237855
9965245423
9965254457
9965260804
9965267701
9965275941
9965281983
9965290528
9965298646
9965305604
9965314454
9965320252
9965329408
9965336976
9965345155
9965350098
9965360902
9965366090
9965375794
9965384522
9965392640
9965400941
9965406800
9965415223
9965422242
9965433228
9965440674
9965447449
9965454529
9965460755
9965466553
9965473633
9965481934
9965486207
9965494263
9965500061
9965507447
9965512146
9965518189
9965527832
9965532776
9965541077
9965546631
9965552918
9965560242
9965565491
9965572388
9965579102
9965584717
9965592652
9965600891
9965606384
9965615418
9965621460
9965627747
9965633972
9965640747
9965645813
9965653565
9965659058
9965665222
9965671204
9965676758
9965684143
9965689636
9965696777
9965702942
9965708862
9965714905
9965720520
9965727112
9965732178
9965737671
9965744079
9965748474
9965755859
9965761535
9965767151
9965773620
9965778259
9965785095
9965790893
9965796692
9965801391
9965807495
9965813476
9965820617
9965826965
9965832702
9965838134
9965844604
9965850708
9965855835
9965862731
9965867004
9965873779
9965878601
9965885498
9965892394
9965896667
9965904846
9965909973
9965916931
9965922607
9965927856
9965935180
9965941222
9965947204
9965952148
9965960082
9965965881
9965971313
9965977966
9965982482
9965990905
9965999877
9966007018
9966014892
9966019836
9966027831
9966034240
9966044311
9966050658
9966057616
9966065917
9966071654
9966079589
9966083800
9966093017
9966098998
9966105895
9966112853
9966118773
9966126097
9966132689
9966139403
9966145751
9966151061
9966159911
9966166930
9966173461
9966179808
9966186888
9966192748
9966199523
9966205870
9966211852
9966219359
9966226439
9966231810
9966238951
9966246031
9966252074
9966258543
9966262999
9966271544
9966276915
9966283751
9966289854
9966297423
9966303282
9966309141
9966317381
9966322752
9966329832
9966335325
9966342772
9966348814
9966354613
9966361265
9966367308
9966374571
9966380003
9966388365
9966394590
9966401365
9966408873
9966415648
9966423765
9966429747
9966435667
9966443418
9966447935
9966456602
9966462278
9966469725
9966475767
9966480406
9966488706
9966493162
9966501768
9966507078
9966514219
9966518247
9966526060
9966532652
9966538511
9966548155
9966554014
9966561521
9966567319
9966573545
9966579099
9966585264
9966593931
9966600339
9966607481
9966613157
9966620786
9966630002
9966637632
9966644834
9966653440
9966660398
9966669370
9966676511
9966684018
9966690671
9966698240
9966706357
9966712339
9966721433
9966727292
9966736081
9966742246
9966751035
9966755979
9966766416
9966774167
9966781858
9966789975
9966795346
9966802731
9966810666
9966819638
9966826352
9966833737
9966842404
9966849179
9966856625
9966863766
9966871030
9966876645
9966884640
9966889889
9966897031
9966904233
9966914975
9966921689
9966930051
9966937314
9966944211
9966951413
9966959530
9966967099
9966974301
9966980954
9966989377
9966996029
9967002011
9967009640
9967017819
9967024777
9967031369
9967043820
9967051205
9967058041
9967064633
9967071285
9967075497
9967082638
9967089718
9967096737
9967102657
9967108761
9967114987
9967121090
9967126400
9967131466
9967138973
9967144772
9967150387
9967156429
9967162655
9967169491
9967175350
9967183224
9967188900
9967194820
9967198238
9967205440
9967211971
9967217586
9967223141
9967228695
9967236385
9967241207
9967248226
9967256038
9967262142
9967269344
9967274349
9967281978
9967286922
9967293636
9967297786
9967304683
9967312252
9967317134
9967324276
9967329341
9967334774
9967340877
9967346614
9967354366
9967360347
9967367183
9967372432
9967378475
9967384090
9967390376
9967395442
9967402156
9967407039
9967413814
9967417659
9967424922
9967433650
9967438655
9967444820
9967450252
9967455806
9967462459
9967466914
9967475154
9967481868
9967487361
9967494563
9967499080
9967506587
9967513728
9967519649
9967526240
9967531978
9967538081
9967542842
9967550166
9967557002
9967563350
9967568904
9967573543
9967582332
9967588130
9967592646
9967601252
9967605952
9967614985
9967619258
9967626582
9967633479
9967639338
9967647578
9967653193
9967660700
9967667842
9967673762
9967680049
9967687434
9967694087
9967700495
9967706782
9967713374
9967719782
9967726191
9967732111
9967740962
9967745112
9967754267
9967759455
9967765498
9967773920
9967779169
9967785639
9967790949
9967799067
9967806757
9967813593
9967820917
9967826838
9967834101
9967841669
9967848261
9967856501
9967862055
9967869257
9967876337
9967882563
9967889032
9967895807
9967902460
9967907770
9967916742
9967923334
9967929377
9967937311
9967942560
9967950373
9967958368
9967964655
9967972589
9967977594
9967985285
9967990839
9967996698
9968003351
9968009454
9968016168
9968022394
9968028925
9968036371
9968043085
9968049860
9968057184
9968065912
9968071405
9968078790
9968085321
9968091424
9968098321
9968104242
9968112665
9968118280
9968125299
9968132074
9968138544
9968143060
9968150262
9968157281
9968163629
9968171869
9968177484
9968184991
9968190179
9968196832
9968203607
9968212823
9968220697
9968228021
9968234674
9968241449
9968247918
9968253289
9968262689
9968269952
9968277581
9968283563
9968291558
9968297418
9968305291
9968310113
9968319695
9968327691
9968333489
9968339898
9968349053
9968353814
9968363335
9968369012
9968375848
9968384759
9968390008
9968397393
9968404961
9968412163
9968419121
9968428887
9968435906
9968443657
9968451897
9968457818
9968465569
9968472893
9968480889
9968488518
9968495049
9968503289
9968510918
9968517571
9968523857
9968532280
9968537773
9968546990
9968552544
9968560417
9968568230
9968575188
9968583794
9968592949
9968597710
9968606316
9968610405
9968619621
9968623650
9968632988
9968641167
9968647820
9968654533
9968662285
9968668022
9968673454
9968680107
9968685356
9968693413
9968699455
9968705315
9968711540
9968717705
9968723991
9968729606
9968736809
9968743400
9968749504
9968755546
9968761711
9968767448
9968773796
9968780388
9968786186
9968791862
9968797722
9968804069
9968809867
9968814933
9968822380
9968826225
9968833366
9968838737
9968844230
9968850212
9968856132
9968864250
9968869560
9968875724
9968881462
9968886527
9968893730
9968898612
9968905021
9968911308
9968916251
9968922294
9968927726
9968934379
9968937675
9968946342
9968951225
9968957267
9968963493
9968969047
9968975211
9968981742
9968987968
9968993095
9968998832
9969004691
9969011100
9969015983
9969023002
9969029777
9969036002
9969041923
9969048209
9969053702
9969060660
9969067008
9969073356
9969078605
9969085196
9969091056
9969096549
9969103263
9969109061
9969116019
9969121207
9969126944
9969132682
9969138114
9969145743
9969152701
9969158438
9969164359
9969170340
9969177298
9969184439
9969190177
9969197806
9969203604
9969210074
9969214652
9969222159
9969226614
9969235281
9969241385
9969248160
9969253714
9969261099
9969266837
9969273367
9969281668
9969288382
9969294852
9969300284
9969306814
9969312430
9969320059
9969326101
9969334036
9969339590
9969345450
9969352652
9969357901
9969364798
9969371573
9969379263
9969384939
9969391592
9969398062
9969403860
9969410391
9969415091
9969423208
9969429556
9969435903
9969444021
9969448538
9969456472
9969461904
9969469412
9969478262
9969484182
9969490774
9969497366
9969503957
9969509939
9969516103
9969523245
9969529409
9969535635
9969542043
9969548452
9969554372
9969562490
9969569936
9969576162
9969583669
9969589223
9969597036
9969601552
9969610403
9969616933
9969622976
9969628957
9969635854
9969641408
9969647268
9969655507
9969661733
9969668020
9969675039
9969680349
9969687429
9969693044
9969700612
9969707326
9969713857
9969721425
9969726308
9969733144
9969739980
9969747487
9969753652
9969759633
9969767201
9969773183
9969778432
9969784474
9969793874
9969799794
9969806691
9969814626
9969820851
9969827199
9969834096
9969841115
9969850514
9969858205
9969863820
9969870778
9969878895
9969883046
9969890553
9969897633
9969908009
9969914601
9969921864
9969928578
9969935658
9969942372
9969947987
9969955678
9969962758
9969971608
9969978016
9969986561
9969990895
9970000721
9970009449
9970014881
9970023243
9970030812
9970038624
9970046437
9970054066
9970061939
9970069691
9970078358
9970084950
9970093067
9970100819
9970108997
9970114796
9970123097
9970132252
9970139820
9970145741
9970153309
9970161488
9970168079
9970174183
9970183948
9970190357
9970198963
9970205616
9970214893
9970221607
9970229297
9970236377
9970245289
9970253345
9970258472
9970265125
9970272022
9970280140
9970287037
9970295948
9970303028
9970309131
9970314441
9970319690
9970326831
9970330493
9970339649
9970345508
9970349964
9970356433
9970362415
9970367664
9970374256
9970381641
9970387683
9970393482
9970402210
9970408740
9970415210
9970419849
9970427478
9970432300
9970440662
9970446643
9970453174
9970458972
9970465869
9970471912
9970479663
9970484668
9970490466
9970495898
9970500903
9970508838
9970514819
9970520862
9970526782
9970532336
9970536975
9970544299
9970547778
9970555652
9970561511
9970565905
9970572558
9970578235
9970583484
9970589465
9970594958
9970601550
9970606616
9970612048
9970617541
9970624987
9970630419
9970636523
9970642871
9970649035
9970653186
9970660754
9970666003
9970673388
9970679553
9970685412
9970690661
9970696337
9970703845
9970709765
9970715380
9970722216
9970728014
9970733996
9970738635
9970746325
9970754320
9970759570
9970767443
9970775744
9970780566
9970788988
9970795031
9970802477
9970808886
9970814989
9970821459
9970827990
9970835253
9970841601
9970848314
9970854845
9970860888
9970867174
9970873461
9970879931
9970885912
9970892931
9970899645
9970906603
9970913134
9970919176
9970924852
9970931505
9970939989
9970946642
9970952135
9970957079
9970964159
9970971178
9970979662
9970988085
9970992967
9971000536
9971005724
9971011827
9971018846
9971024522
9971031175
9971038683
9971045213
9971051256
9971057054
9971063402
9971068956
9971073473
9971082445
9971087999
9971095567
9971100938
9971107042
9971111558
9971122728
9971131700
9971137742
9971144029
9971151353
9971157457
9971163438
9971169236
9971175767
9971181688
9971189256
9971194505
9971201646
9971208543
9971215989
9971222703
9971229234
9971234971
9971240403
9971247422
9971253465
9971260545
9971269334
9971276475
9971283433
9971289353
9971298814
9971306809
9971313889
9971321641
9971328782
9971334641
9971340012
9971347886
9971351609
9971359360
9971367417
9971374558
9971381943
9971389207
9971397385
9971403672
9971410874
9971418137
9971424912
9971431260
9971437424
9971444443
9971451401
9971457810
9971466538
9971471421
9971480637
9971487534
9971494370
9971496689
9971507004
9971513535
9971520432
9971528855
9971536789
9971544052
9971550766
9971557907
9971562424
9971572861
9971580429
9971587326
9971593918
9971600815
9971607163
9971614121
9971623520
9971630234
9971637131
9971642502
9971650253
9971657822
9971666305
9971673324
9971682480
9971687240
9971695419
9971702133
9971709152
9971713363
9971722214
9971730087
9971738266
9971746322
9971754074
9971761459
9971767624
9971776474
9971782638
9971792587
9971798629
9971807785
9971814682
9971822311
9971830734
9971835494
9971842330
9971850753
9971859176
9971865219
9971871932
9971876449
9971882552
9971888961
9971895675
9971900863
9971908798
9971915389
9971921127
9971927169
9971931747
9971940292
9971945235
9971951461
9971956283
9971962813
9971968185
9971974654
9971981734
9971988326
9971994735
9972000045
9972007247
9972013534
9972019637
9972026473
9972032577
9972039473
9972045577
9972051680
9972058211
9972062606
9972070784
9972075423
9972082137
9972087996
9972093306
9972099227
9972103438
9972111739
9972116622
9972123213
9972129561
9972134993
9972140181
9972145613
9972153243
9972158980
9972164046
9972170394
9972175765
9972181624
9972187544
9972194197
9972200728
9972206160
9972211775
9972216170
9972224043
9972229536
9972235030
9972240889
9972246870
9972253279
9972259688
9972263899
9972272627
9972277815
9972285506
9972291121
9972296797
9972303633
9972308821
9972316755
9972322004
9972327376
9972333479
9972339705
9972346663
9972353499
9972359358
9972366194
9972371260
9972378340
9972385542
9972390730
9972397932
9972404036
9972411299
9972415876
9972422773
9972429243
9972436384
9972441877
9972449446
9972453352
9972461836
9972468244
9972474531
9972480268
9972487531
9972493635
9972500410
9972507856
9972514509
9972519453
9972528425
9972535139
9972541242
9972548200
9972555036
9972562543
9972567853
9972574811
9972581586
9972589643
9972594648
9972600507
9972607770
9972612958
9972619611
9972625043
9972633283
9972639936
9972646222
9972652631
9972658918
9972665937
9972671979
9972677900
9972684247
9972690534
9972697797
9972702802
9972709516
9972714032
9972722272
9972730268
9972736676
9972742475
9972747479
9972755475
9972759625
9972769086
9972775433
9972781720
9972787152
9972793561
9972799237
9972807538
9972814008
9972820416
9972827252
9972835919
9972841717
9972850201
9972855267
9972863141
9972870038
9972875592
9972882367
9972888775
9972895672
9972899457
9972909649
9972915814
9972921673
9972927716
9972934613
9972942059
9972946148
9972956524
9972962201
9972969281
9972977093
9972982464
9972989544
9972996746
9973005658
9973011639
9973019268
9973024700
9973033184
9973038738
9973047283
9973055523
9973062603
9973069744
9973076641
9973082806
9973091168
9973098126
9973103680
9973110394
9973120159
9973125408
9973134747
9973143963
9973151165
9973159222
9973167705
9973175457
9973181499
9973190044
9973196148
9973204815
9973212993
9973219829
9973227337
9973235393
9973245098
9973251995
9973260479
9973267681
9973275798
9973283916
9973291606
9973298809
9973305950
9973312114
9973319194
9973325237
9973332317
9973340679
9973347270
9973354656
9973360576
9973367900
9973373760
9973382304
9973388713
9973398174
9973403301
9973413249
9973421611
9973430034
9973436626
9973443828
9973451640
9973458232
9973465678
9973471110
9973478618
9973483806
9973490092
9973498515
9973504191
9973509868
9973516032
9973521831
9973528850
9973533244
9973542277
9973548320
9973554301
9973558146
9973565532
9973571940
9973578898
9973584941
9973590800
9973596965
9973603801
9973609843
9973614787
9973622111
9973628276
9973633830
9973641886
9973648478
9973652812
9973660624
9973665568
9973672221
9973678324
9973684000
9973690531
9973695536
9973702433
9973709452
9973714518
9973721232
9973726054
9973732401
9973738871
9973744730
9973750712
9973756449
9973763895
9973768961
9973774332
9973782023
9973787211
9973794413
9973800455
9973806193
9973812235
9973816202
9973823527
9973828043
9973836649
9973842020
9973847147
9973852884
9973858927
9973864969
9973872660
9973878031
9973884439
9973890909
9973897928
9973903726
9973909159
9973915750
9973921610
9973928934
9973934061
9973940775
9973946573
9973952982
9973959451
9973964517
9973973245
9973978922
9973985697
9973992105
9973994974
9974008524
9974016153
9974022745
9974028665
9974033670
9974041605
9974048807
9974055276
9974062112
9974067361
9974074197
9974080057
9974086770
9974095193
9974100320
9974107950
9974113016
9974119974
9974125345
9974133279
9974139932
9974146219
9974152200
9974158609
9974165017
9974171670
9974178567
9974184671
9974191934
9974198831
9974204812
9974211953
9974218545
9974224649
9974230691
9974239053
9974245522
9974251626
9974258340
9974262979
9974269631
9974276589
9974284219
9974288430
9974296426
9974303689
9974309792
9974316201
9974321084
9974330239
9974335366
9974342446
9974350075
9974355935
9974362649
9974367654
9974376137
9974382180
9974388650
9974396035
9974401955
9974406899
9974413003
9974421975
9974427468
9974434426
9974439492
9974447365
9974453225
9974459145
9974467385
9974473244
9974478920
9974485085
9974491005
9974498146
9974502724
9974512306
9974518044
9974524086
9974528908
9974537880
9974543190
9974549050
9974557839
9974563149
9974568703
9974575478
9974582863
9974588478
9974597572
9974604042
9974611794
9974620155
9974625587
9974634132
9974642189
9974650551
9974657326
9974664345
9974671181
9974679298
9974685036
9974692909
9974697426
9974706947
9974715004
9974722999
9974730751
9974736488
9974743934
9974749427
9974758400
9974765846
9974773719
9974780738
9974788612
9974794776
9974803443
9974810340
9974816627
9974823036
9974832313
9974837074
9974846046
9974853065
9974858985
9974867530
9974875037
9974880470
9974891090
9974898780
9974907020
9974916297
9974926063
9974935706
9974944495
9974951514
9974958716
9974969703
9974974952
9974986671
9974994727
9975003699
9975010718
9975018226
9975025367
9975031348
9975039100
9975045630
9975052283
9975056678
9975065772
9975072852
9975078955
9975085608
9975090369
9975099463
9975106665
9975111365
9975120032
9975126197
9975132605
9975138953
9975146216
9975152930
9975158362
9975165442
9975171668
9975177527
9975184363
9975189429
9975197730
9975201453
9975209265
9975215125
9975220740
9975227759
9975233252
9975240027
9975247534
9975253088
9975258703
9975265356
9975272192
9975278296
9975283667
9975290564
9975296057
9975301306
9975305700
9975312292
9975316015
9975324865
9975330908
9975336889
9975342444
9975347326
9975353430
9975359350
9975364660
9975371191
9975376623
9975382238
9975387182
9975393591
9975400854
9975405615
9975412451
9975417822
9975423376
9975430151
9975437170
9975441870
9975447729
9975454748
9975461218
9975467016
9975473058
9975478491
9975486120
9975492590
9975498144
9975504369
9975510900
9975516454
9975523779
9975530370
9975536779
9975542272
9975548925
9975554296
9975562292
9975569311
9975574987
9975581884
9975589879
9975595678
9975602331
9975608922
9975616124
9975622960
9975628454
9975633519
9975640722
9975646703
9975654088
9975662328
9975668676
9975675084
9975680272
9975687474
9975693090
9975699742
9975707677
9975714574
9975720006
9975727635
9975734471
9975741063
9975747594
9975754796
9975760899
9975769261
9975775426
9975781346
9975785191
9975793675
9975800999
9975807591
9975814488
9975819981
9975828282
9975834203
9975840916
9975847386
9975853001
9975860142
9975866246
9975873692
9975878636
9975884617
9975892735
9975898900
9975905797
9975910862
9975917271
9975923985
9975931126
9975938389
9975945347
9975952977
9975958958
9975966832
9975973118
9975980015
9975986119
9975992527
9975998509
9976004368
9976011265
9976015965
9976021885
9976030247
9976035496
9976041111
9976048435
9976053990
9976059849
9976067967
9976076939
9976082188
9976090000
9976097630
9976103916
9976110996
9976117832
9976124668
9976130222
9976138523
9976144565
9976148960
9976156162
9976162815
9976171543
9976177585
9976183384
9976190708
9976195164
9976203281
9976210117
9976217319
9976223362
9976230137
9976238071
9976244114
9976252109
9976261020
9976269626
9976276096
9976283542
9976289585
9976297214
9976303012
9976311191
9976318759
9976327365
9976332309
9976341403
9976349460
9976354953
9976359042
9976368686
9976373569
9976384128
9976392184
9976399631
9976406772
9976412265
9976419589
9976426791
9976436069
9976444430
9976450046
9976457614
9976465121
9976470675
9976477328
9976483920
9976493014
9976497775
9976506320
9976513644
9976520846
9976525790
9976536532
9976543795
9976551303
9976560763
9976567172
9976576571
9976583163
9976591281
9976598422
9976606784
9976614474
9976621554
9976626498
9976634432
9976641635
9976648165
9976655551
9976661593
9976669405
9976676852
9976682345
9976690035
9976696139
9976703036
9976708102
9976715853
9976722384
9976728548
9976735140
9976742037
9976748019
9976753390
9976761446
9976767061
9976772921
9976778902
9976784029
9976791231
9976796969
9976804720
9976810640
9976816378
9976822603
9976828219
9976837618
9976843416
9976850374
9976856234
9976861299
9976866793
9976871798
9976878633
9976884493
9976890108
9976896761
9976901399
9976905733
9976913545
9976918428
9976924532
9976929842
9976936434
9976941866
9976947176
9976952364
9976959749
9976964082
9976971285
9976975557
9976981722
9976987093
9976993562
9977001070
9977006075
9977012422
9977018465
9977023469
9977028718
9977034456
9977042207
9977047273
9977054414
9977059541
9977065278
9977071931
9977077363
9977085359
9977091157
9977096101
9977103364
9977109590
9977114717
9977120332
9977129426
9977134431
9977142122
9977147798
9977153657
9977159272
9977165193
9977173188
9977178559
9977186555
9977192231
9977198152
9977204743
9977210786
9977218720
9977223847
9977230805
9977236054
9977242097
9977249360
9977255280
9977262605
9977269135
9977277070
9977283051
9977292329
9977298981
9977304414
9977313142
9977319245
9977326752
9977332856
9977338837
9977345978
9977351350
9977359528
9977366608
9977372162
9977379670
9977386200
9977392121
9977398102
9977405182
9977411652
9977417511
9977424469
9977431122
9977437348
9977443879
9977451630
9977459565
9977465485
9977473053
9977478974
9977485688
9977491974
9977498810
9977505280
9977512299
9977517365
9977524567
9977531220
9977537079
9977543915
9977550934
9977558075
9977563934
9977570648
9977574310
9977582306
9977589996
9977596588
9977603180
9977609283
9977616363
9977624115
9977629181
9977636932
9977643158
9977650726
9977657379
9977663544
9977670685
9977675140
9977683868
9977689178
9977696014
9977703155
9977709015
9977715179
9977721954
9977728729
9977734588
9977741607
9977747589
9977753570
9977760711
9977765594
9977775360
9977782562
9977791351
9977798004
9977805511
9977811798
9977818145
9977825164
9977835174
9977841155
9977848235
9977856170
9977863372
9977868865
9977877471
9977885589
9977892974
9977901458
9977908843
9977915862
9977921783
9977929656
9977934600
9977945525
9977951995
9977959624
9977967925
9977973968
9977983245
9977991424
9977998687
9978005645
9978013518
9978020293
9978027861
9978034880
9978040557
9978049834
9978055693
9978064482
9978070037
9978077422
9978084380
9978091155
9978097197
9978107207
9978113860
9978120757
9978128935
9978135649
9978141936
9978152129
9978159880
9978169035
9978175871
9978183134
9978189665
9978197905
9978204985
9978213530
9978221220
9978228606
9978235136
9978243132
9978249480
9978254790
9978261259
9978268217
9978274443
9978280790
9978286650
9978291716
9978298979
9978305754
9978312101
9978318022
9978323210
9978331816
9978337065
9978345304
9978354765
9978363981
9978376493
9978385710
9978392607
9978399626
9978404508
9978412992
9978419218
9978424894
9978432768
9978438200
9978444181
9978451139
9978455473
9978463407
9978472685
9978481107
9978486051
9978494535
9978502348
9978506925
9978514799
9978520536
9978528409
9978534208
9978539396
9978545377
9978551725
9978558561
9978564359
9978569547
9978574979
9978581083
9978587491
9978592740
9978599637
9978604642
9978611173
9978617399
9978622892
9978628568
9978634793
9978640470
9978645719
9978652616
9978658658
9978662503
9978669828
9978675809
9978682218
9978688016
9978693936
9978700162
9978704984
9978712857
9978719083
9978724759
9978730924
9978736173
9978743436
9978749478
9978753690
9978761441
9978766141
9978773343
9978779935
9978786588
9978794034
9978799710
9978808316
9978814297
9978820950
9978827359
9978833523
9978840726
9978847806
9978853848
9978860684
9978866971
9978873562
9978878628
9978886990
9978891873
9978900540
9978907559
9978914456
9978921414
9978926846
9978935025
9978938931
9978946499
9978953457
9978959805
9978966580
9978971524
9978978360
9978985501
9978991543
9978997769
9979003811
9979009487
9979015347
9979021816
9979028774
9979034878
9979041042
9979048672
9979055996
9979062588
9979067959
9979075771
9979082302
9979089016
9979097256
9979103542
9979110134
9979116115
9979122280
9979130886
9979138088
9979146145
9979152370
9979157253
9979164516
9979170620
9979178921
9979184231
9979190212
9979196315
9979202114
9979208156
9979215358
9979222072
9979227565
9979234890
9979240932
9979247585
9979254177
9979260219
9979266628
9979272609
9979281154
9979287136
9979294765
9979300502
9979308010
9979314784
9979321437
9979330715
9979337062
9979343593
9979351711
9979357387
9979366359
9979372707
9979378627
9979384975
9979390773
9979396022
9979402003
9979409694
9979415309
9979422999
9979428371
9979435451
9979438991
9979447413
9979454616
9979461024
9979468348
9979473536
9979480128
9979486659
9979493678
9979501307
9979507838
9979515406
9979520839
9979528712
9979535731
9979542750
9979548243
9979559291
9979565760
9979572840
9979580043
9979587367
9979594142
9979601283
9979607630
9979615016
9979621546
9979629420
9979636561
9979642176
9979649928
9979657435
9979665675
9979672999
9979680262
9979688258
9979694178
9979700343
9979708216
9979716456
9979724024
9979729395
9979738245
9979745203
9979754114
9979759058
9979769068
9979777918
9979784876
9979792872
9979798304
9979807215
9979813440
9979822290
9979826807
9979835108
9979842676
9979849451
9979855799
9979860926
9979869715
9979874842
9979882044
9979889124
9979894861
9979901392
9979906641
9979913111
9979918482
9979925562
9979931970
9979937708
9979943567
9979949670
9979955347
9979961755
9979969080
9979972864
9979979639
9979985620
9979991541
9979998315
9980004785
9980012659
9980017908
9980024499
9980030176
9980036340
9980042810
9980048669
9980055139
9980062768
9980068933
9980073694
9980079370
9980085962
9980090722
9980095849
9980104272
9980110376
9980115503
9980120874
9980127099
9980132959
9980138208
9980145715
9980150964
9980156213
9980161462
9980167138
9980174218
9980177575
9980186486
9980192040
9980197473
9980203515
9980209313
9980215478
9980220605
9980227197
9980233361
9980239098
9980245324
9980251489
9980256921
9980261803
9980270776
9980276452
9980282861
9980288903
9980293786
9980301293
9980308068
9980314355
9980321068
9980327233
9980334435
9980341332
9980346703
9980353661
9980359582
9980365868
9980371728
9980378441
9980384423
9980389611
9980399926
9980406151
9980411950
9980419152
9980425438
9980431847
9980438439
9980444176
9980451805
9980458641
9980465172
9980470543
9980478539
9980482323
9980491844
9980497338
9980503563
9980511254
9980516197
9980522667
9980530052
9980536095
9980543358
9980549217
9980555138
9980561546
9980567101
9980574669
9980581871
9980588463
9980594261
9980600731
9980606895
9980614098
9980621300
9980628868
9980632774
9980640892
9980644981
9980652122
9980658287
9980664085
9980672203
9980677208
9980684349
9980689293
9980696495
9980702110
9980708946
9980717552
9980722984
9980730857
9980735862
9980743980
9980750572
9980756675
9980764671
9980769981
9980775596
9980781333
9980790122
9980795127
9980802146
9980811057
9980816429
9980824851
9980831870
9980836631
9980844383
9980851890
9980859458
9980863670
9980872398
9980878562
9980884910
9980892905
9980898765
9980907004
9980910911
9980919639
9980925681
9980930198
9980937400
9980944297
9980950217
9980958396
9980964133
9980971763
9980976462
9980983909
9980990012
9980997153
9981004050
9981010032
9981017905
9981023520
9981030356
9981039084
9981046836
9981054038
9981060385
9981066367
9981074607
9981078940
9981087058
9981093344
9981102744
9981107749
9981116477
9981123740
9981130759
9981136618
9981143637
9981151999
9981159750
9981166769
9981173056
9981181296
9981188742
9981195639
9981203512
9981211081
9981218649
9981224570
9981230978
9981239401
9981245688
9981252463
9981261313
9981266440
9981275656
9981282614
9981291098
9981296042
9981305319
9981310385
9981321249
9981329916
9981335775
9981340353
9981351095
9981358725
9981364523
9981374044
9981382040
9981389547
9981397360
9981405416
9981414327
9981421346
9981429952
9981436910
9981444357
9981452169
9981458822
9981464864
9981470724
9981478231
9981484518
9981491231
9981497762
9981504476
9981510152
9981516439
9981522298
9981528646
9981535848
9981542501
9981549215
9981553548
9981560689
9981565145
9981572896
9981577962
9981584981
9981591024
9981596822
9981604451
9981611348
9981618917
9981624837
9981630880
9981636617
9981643453
9981649068
9981654256
9981661946
9981667928
9981674764
9981680257
9981686238
9981692342
9981697164
9981705220
9981710530
9981715596
9981720784
9981726766
9981732015
9981738728
9981744283
9981749471
9981754720
9981761556
9981767049
9981771931
9981779561
9981784993
9981790181
9981795247
9981802266
9981806782
9981813435
9981818196
9981825703
9981830952
9981835957
9981842305
9981848042
9981852559
9981860676
9981866353
9981872639
9981878010
9981884480
9981888875
9981896748
9981902058
9981910298
9981916829
9981922749
9981930195
9981936116
9981941670
9981949482
9981953816
9981960530
9981966450
9981972248
9981979023
9981985554
9981991352
9982000508
9982006916
9982013691
9982020039
9982026508
9982030171
9982038166
9982044941
9982052815
9982057941
9982064350
9982070515
9982077534
9982084919
9982090900
9982097797
9982104450
9982110309
9982117756
9982124775
9982131000
9982137470
9982144184
9982150226
9982156147
9982162678
9982168537
9982174885
9982181781
9982189167
9982194599
9982202289
9982208637
9982214618
9982220661
9982225727
9982235248
9982242572
9982249408
9982255207
9982261249
9982268329
9982274433
9982282245
9982287311
9982294818
9982301959
9982308246
9982313373
9982319415
9982327472
9982332843
9982340106
9982345599
9982352435
9982357623
9982364642
9982371600
9982377521
9982384296
9982390765
9982396014
9982400958
9982409137
9982414081
9982422076
9982429156
9982435992
9982442157
9982447101
9982453937
9982460101
9982469195
9982474261
9982480121
9982488177
9982492694
9982499713
9982505267
9982512286
9982519915
9982526019
9982531939
9982539019
9982545550
9982551654
9982558917
9982565447
9982572711
9982580279
9982587420
9982594195
9982601153
9982607134
9982614825
9982621050
9982628924
9982636248
9982642596
9982651751
9982660662
9982667010
9982674883
9982682513
9982688250
9982696368
9982704668
9982710406
9982718584
9982725054
9982732683
9982738787
9982747759
9982755388
9982762774
9982769182
9982776323
9982784197
9982789690
9982794329
9982804644
9982811419
9982818560
9982827532
9982834185
9982841021
9982846941
9982855242
9982862444
9982872026
9982879839
9982885393
9982892534
9982899553
9982906816
9982916155
9982925371
9982932207
9982941301
9982946001
9982955217
9982962541
9982968584
9982975908
9982985551
9982990556
9982999589
9983006975
9983013811
9983020280
9983028764
9983034196
9983044877
9983051408
9983056291
9983063981
9983071000
9983078752
9983085038
9983091508
9983096757
9983103715
9983108842
9983115678
9983119828
9983127580
9983135026
9983141801
9983147416
9983154679
9983160111
9983166825
9983172563
9983179093
9983186234
9983192216
9983196244
9983203141
9983210343
9983217301
9983224870
9983230058
9983238847
9983245011
9983251847
9983258439
9983264725
9983270463
9983277116
9983283585
9983288712
9983295853
9983301957
9983307877
9983313737
9983319047
9983325455
9983330948
9983337479
9983342362
9983348893
9983354874
9983360184
9983366105
9983370926
9983378190
9983384232
9983391434
9983397538
9983403580
9983409012
9983416520
9983421585
9983427384
9983433670
9983440262
9983445877
9983450150
9983456803
9983460404
9983469193
9983474625
9983480362
9983487564
9983492752
9983499405
9983507340
9983513077
9983519058
9983523697
9983531998
9983539139
9983544693
9983551285
9983557083
9983564407
9983570084
9983576492
9983582840
9983588150
9983596207
9983603348
9983609390
9983616531
9983623062
9983628372
9983634231
9983643387
9983649978
9983655899
9983663223
9983668777
9983676223
9983683853
9983690200
9983696426
9983702774
9983710037
9983716507
9983723037
9983730728
9983738479
9983744339
9983752212
9983758743
9983766677
9983771316
9983780837
9983786941
9983793289
9983799453
9983805862
9983813796
9983818130
9983828384
9983834731
9983840957
9983848342
9983854690
9983863113
9983868362
9983876601
9983883254
9983889358
9983895522
9983901992
9983908706
9983914199
9983923476
9983928054
9983935927
9983941726
9983948256
9983954604
9983961928
9983968215
9983974807
9983980727
9983988845
9983993850
9984000441
9984006240
9984013869
9984020827
9984026808
9984033766
9984040358
9984047133
9984052443
9984060317
9984064955
9984072585
9984079054
9984085097
9984090773
9984096999
9984105055
9984110365
9984117262
9984122817
9984129897
9984135817
9984142775
9984149428
9984155531
9984162917
9984168288
9984176527
9984181837
9984190871
9984199354
9984207594
9984214613
9984220534
9984227370
9984233595
9984243117
9984248610
9984258375
9984266615
9984273756
9984280775
9984286146
9984293470
9984300489
9984308607
9984315138
9984322645
9984328749
9984336561
9984342604
9984351087
9984358412
9984366651
9984373915
9984381239
9984389356
9984396925
9984404371
9984413282
9984420545
9984427442
9984434889
9984442396
9984449842
9984456922
9984464124
9984470594
9984478040
9984485181
9984492750
9984500013
9984511243
9984518079
9984524488
9984534376
9984542005
9984548902
9984555921
9984563123
9984570813
9984577405
9984589124
9984596082
9984603284
9984609937
9984617505
9984623181
9984632398
9984638929
9984647962
9984652967
9984661206
9984667798
9984673963
9984680432
9984684766
9984693921
9984703443
9984709119
9984715527
9984721814
9984726880
9984733533
9984741040
9984746838
9984751965
9984757275
9984763196
9984769849
9984775281
9984782910
9984788769
9984794324
9984800488
9984806409
9984811413
9984819043
9984825329
9984831555
9984837903
9984844311
9984849865
9984857190
9984862866
9984868725
9984874279
9984882092
9984888501
9984893689
9984900708
9984905529
9984912182
9984917370
9984924572
9984929699
9984935253
9984940991
9984946240
9984954174
9984960705
9984966992
9984972546
9984979626
9984987621
9984993908
9985001415
9985007153
9985012768
9985018749
9985025036
9985031200
9985036388
9985043407
9985047985
9985054577
9985061535
9985067821
9985073742
9985078808
9985089245
9985096325
9985101574
9985108959
9985115734
9985122021
9985129345
9985134105
9985141491
9985145153
9985151806
9985159923
9985166027
9985172924
9985179393
9985186473
9985193187
9985198680
9985207286
9985213329
9985219310
9985226879
9985232128
9985239147
9985244640
9985253002
9985258617
9985265087
9985272655
9985277599
9985284923
9985288890
9985297313
9985304088
9985310375
9985316417
9985323497
9985329356
9985336498
9985342601
9985349498
9985356029
9985361583
9985367015
9985374461
9985378306
9985388133
9985394725
9985401012
9985406810
9985411876
9985419505
9985426280
9985432445
9985437938
9985445811
9985451610
9985457774
9985464793
9985469249
9985477183
9985482798
9985489940
9985494822
9985501780
9985507884
9985515513
9985524119
9985529490
9985537608
9985543284
9985549449
9985554759
9985562327
9985571360
9985577220
9985584666
9985591197
9985597605
9985603404
9985610911
9985618601
9985623545
9985632456
9985637705
9985646494
9985653513
9985660776
9985668406
9985675608
9985682200
9985688486
9985694895
9985697459
9985706736
9985714426
9985719980
9985727366
9985732309
9985738901
9985744333
9985751413
9985758921
9985765452
9985772471
9985780344
9985786142
9985793344
9985799936
9985808176
9985814829
9985822763
9985828745
9985836252
9985842722
9985850839
9985855783
9985866281
9985873544
9985878855
9985887155
9985894418
9985901682
9985908823
9985917673
9985922006
9985931833
9985939706
9985947153
9985954355
9985961923
9985969186
9985977548
9985984689
9985990671
9985997140
9986002939
9986011239
9986017709
9986026803
9986033517
9986043100
9986050851
9986057138
9986065255
9986073434
9986079049
9986088632
9986097360
9986105172
9986113107
9986118905
9986127694
9986133554
9986143441
9986149911
9986159860
9986167855
9986174630
9986181405
9986189279
9986196908
9986206307
9986213754
9986223092
9986228585
9986237496
9986243356
9986250680
9986257149
9986267037
9986271493
9986279671
9986286935
9986291390
9986297310
9986304574
9986312447
9986318123
9986323678
9986329476
9986335579
9986342415
9986347542
9986354500
9986361824
9986367379
9986372872
9986379342
9986386605
9986391793
9986399239
9986404427
9986410042
9986416390
9986422737
9986428597
9986435189
9986442147
9986448799
9986455086
9986461861
9986466866
9986474556
9986480049
9986487129
9986493477
9986499642
9986506538
9986512093
9986517342
9986520882
9986528694
9986534981
9986539864
9986546577
9986552498
9986557564
9986564033
9986570015
9986576729
9986582222
9986588753
9986593819
9986598457
9986606026
9986611702
9986617500
9986623359
9986629036
9986635750
9986642341
9986647896
9986654792
9986661750
9986667122
9986674019
9986680732
9986688240
9986692573
9986700508
9986706367
9986712410
9986718940
9986725410
9986733406
9986739204
9986745307
9986753913
9986759773
9986766792
9986774543
9986779792
9986787849
9986794502
9986801093
9986808051
9986813972
9986821418
9986828132
9986834235
9986840339
9986846198
9986853339
9986859016
9986867011
9986872871
9986880683
9986884955
9986892097
9986898139
9986904120
9986912726
9986918708
9986925422
9986930610
9986937262
9986942267
9986948859
9986955878
9986962043
9986970099
9986975898
9986983039
9986990973
9986995795
9987003546
9987009223
9987015692
9987022101
9987028754
9987035834
9987041449
9987049994
9987056586
9987063056
9987069098
9987075324
9987081854
9987089423
9987098456
9987104743
9987110785
9987117926
9987124396
9987130377
9987135687
9987144659
9987151190
9987157538
9987163702
9987170172
9987175970
9987181525
9987191229
9987196661
9987202704
9987209845
9987215399
9987223089
9987228644
9987237677
9987244146
9987251104
9987258062
9987262945
9987271002
9987277105
9987286749
9987291327
9987300177
9987304266
9987313421
9987317633
9987326361
9987334295
9987342169
9987348516
9987353704
9987361761
9987368536
9987375494
9987384222
9987390936
9987397344
9987402288
9987409246
9987416021
9987423589
9987429693
9987438787
9987443182
9987453130
9987459295
9987467229
9987474432
9987481695
9987489324
9987496648
9987503362
9987508733
9987515935
9987523015
9987530217
9987539190
9987547307
9987553899
9987562200
9987569097
9987575628
9987581304
9987590520
9987598394
9987606450
9987613774
9987620977
9987628850
9987638005
9987644902
9987653447
9987660405
9987669682
9987675115
9987683904
9987690617
9987697453
9987703740
9987712712
9987717778
9987727483
9987735295
9987741215
9987746342
9987756963
9987764836
9987772526
9987781193
9987787175
9987796635
9987802617
9987812687
9987819951
9987829777
9987836918
9987845280
9987852604
9987859379
9987865971
9987871037
9987881047
9987886845
9987894108
9987900090
9987905705
9987911320
9987917607
9987925907
9987930851
9987937626
9987942753
9987950138
9987953739
9987962223
9987969486
9987975834
9987982487
9987987553
9987995548
9987999333
9988008549
9988014286
9988021183
9988027164
9988033329
9988039249
9988044315
9988052677
9988059757
9988064762
9988073002
9988077274
9988082035
9988088383
9988094913
9988100895
9988108158
9988113529
9988119999
9988126102
9988131778
9988138248
9988143741
9988149784
9988156742
9988162174
9988167606
9988172733
9988179508
9988186100
9988191043
9988197513
9988202579
9988208377
9988213932
9988219547
9988225528
9988232364
9988238468
9988244571
9988250308
9988255069
9988262515
9988268436
9988274234
9988280765
9988285587
9988291263
9988296329
9988305545
9988310489
9988316531
9988322635
9988328433
9988334232
9988339297
9988347537
9988352847
9988358707
9988364688
9988369327
9988377444
9988384891
9988391421
9988399539
9988404483
9988413150
9988416812
9988425662
9988433047
9988439822
9988447390
9988451175
9988458987
9988466494
9988474063
9988481387
9988489199
9988495852
9988503176
9988508609
9988517214
9988521365
9988529605
9988536441
9988543398
9988549929
9988554873
9988563601
9988570986
9988576357
9988585391
9988591067
9988596987
9988603457
9988609377
9988616396
9988623537
9988629153
9988634097
9988641238
9988647280
9988654543
9988661867
9988668154
9988675417
9988680483
9988687929
9988695070
9988702334
9988709780
9988715456
9988722658
9988729311
9988735170
9988741945
9988748842
9988755617
9988759768
9988768740
9988775454
9988781435
9988788210
9988792849
9988801516
9988807497
9988814638
9988821047
9988828310
9988833803
9988840212
9988847109
9988852052
9988858461
9988865236
9988871523
9988876772
9988883913
9988891603
9988898073
9988904359
9988910402
9988916444
9988923036
9988929689
9988937440
9988945375
9988952455
9988958620
9988966188
9988972597
9988978151
9988983827
9988992555
9988998414
9989004823
9989012819
9989018373
9989026063
9989031984
9989042604
9989049257
9989057252
9989063661
9989070375
9989077272
9989084230
9989092836
9989100709
9989108949
9989115296
9989123170
9989130982
9989137269
9989144776
9989154176
9989162415
9989167542
9989174683
9989181580
9989189332
9989195680
9989201661
9989211671
9989218507
9989225648
9989233399
9989239014
9989246644
9989252442
9989261109
9989268799
9989273682
9989283082
9989291688
9989297486
9989304932
9989312439
9989318848
9989326661
9989334290
9989341248
9989351258
9989359253
9989366455
9989373536
9989382264
9989387452
9989396607
9989404114
9989411682
9989419068
9989426331
9989435425
9989442444
9989449158
9989453308
9989461731
9989468506
9989474365
9989481018
9989487061
9989492798
9989498230
9989506409
9989511597
9989517151
9989524231
9989530640
9989536499
9989541504
9989548828
9989552246
9989559204
9989566406
9989572815
9989578308
9989585083
9989591675
9989595764
9989603515
9989611633
9989616943
9989624389
9989630249
9989635925
9989643249
9989648925
9989656616
9989661499
9989668029
9989673828
9989679016
9989685424
9989691345
9989697631
9989703735
9989708984
9989716308
9989720886
9989727172
9989732299
9989740112
9989745544
9989751647
9989757995
9989762817
9989770690
9989776855
9989781616
9989789306
9989793762
9989800475
9989804015
9989812133
9989818420
9989824279
9989830383
9989835326
9989842040
9989848388
9989852843
9989860473
9989866027
9989872619
9989878356
9989883910
9989890746
9989897033
9989904906
9989908385
9989915709
9989921813
9989928161
9989933715
9989938720
9989946776
9989952636
9989959655
9989966796
9989972472
9989978942
9989986937
9989994078
9989999327
9990005736
9990013549
9990019652
9990025633
9990033934
9990040282
9990047789
9990053649
9990059691
9990066832
9990071715
9990080382
9990086241
9990093810
9990099608
9990105711
9990112364
9990118529
9990125792
9990133665
9990139586
9990144591
9990152281
9990159361
9990165343
9990172545
9990177489
9990185118
9990191466
9990197630
9990204405
9990211546
9990219847
9990226683
9990232603
9990239195
9990245604
9990253904
9990257933
9990268858
9990276609
9990283445
9990291319
9990295164
9990304624
9990311949
9990317015
9990325010
9990330686
9990338011
9990345274
9990351316
9990357908
9990363401
9990370664
9990375547
9990382932
9990388914
9990394895
9990402769
9990409727
9990417173
9990423338
9990429075
9990436460
9990442808
9990450254
9990457822
9990464231
9990468931
9990475767
9990483152
9990487668
9990495725
9990504087
9990510923
9990517698
9990524473
9990531736
9990537107
9990546384
9990552793
9990559934
9990566953
9990573789
9990580869
9990585935
9990593808
9990601499
9990608457
9990616086
9990621518
9990629331
9990635800
9990645200
9990653439
9990660031
9990667722
9990675656
9990680295
9990691403
9990700253
9990707700
9990715024
9990721188
9990729855
9990736752
9990742856
9990749203
9990758725
9990764828
9990773007
9990781125
9990788144
9990794003
9990801083
9990809079
9990815304
9990824887
