9554419083
9554428726
9554437393
9554444961
9554452469
9554461075
9554469742
9554478164
9554486404
9554493912
9554501968
9554510147
9554517776
9554525833
9554536148
9554543472
9554550552
9554556045
9554565628
9554574539
9554580947
9554588455
9554597549
9554605728
9554615127
9554620132
9554628433
9554635208
9554645522
9554651565
9554658828
9554667190
9554673782
9554682815
9554690139
9554699661
9554705825
9554713821
9554720290
9554727553
9554734695
9554741775
9554750808
9554758376
9554767653
9554772780
9554782241
9554789382
9554798232
9554807692
9554813002
9554821608
9554825148
9554837050
9554844619
9554851210
9554860488
9554867751
9554878432
9554886367
9554894240
9554902724
9554908583
9554916945
9554925917
9554933241
9554939772
9554948378
9554957411
9554966506
9554974989
9554984145
9554992201
9555000502
9555009108
9555019179
9555027174
9555034315
9555041457
9555050551
9555059279
9555073012
9555079420
9555088087
9555095961
9555104811
9555111342
9555120924
9555128798
9555135634
9555143080
9555151014
9555156446
9555165602
9555173292
9555181776
9555190504
9555197584
9555204969
9555213697
9555220472
9555228529
9555236830
9555244764
9555253187
9555261854
9555269788
9555277723
9555284620
9555296400
9555302991
9555310499
9555320875
9555329175
9555334974
9555345106
9555352796
9555361463
9555369398
9555377759
9555385755
9555394727
9555403760
9555413221
9555420606
9555428968
9555434400
9555443372
9555450391
9555459790
9555468457
9555476331
9555483960
9555491834
9555501294
9555507154
9555516675
9555526441
9555532544
9555541944
9555547742
9555556836
9555564099
9555573621
9555582532
9555588696
9555597607
9555604321
9555613782
9555621838
9555631970
9555642041
9555651379
9555659558
9555667859
9555675488
9555682507
9555693921
9555702099
9555714612
9555727856
9555735058
9555744641
9555752575
9555763012
9555770520
9555779614
9555791821
9555800122
9555807385
9555815747
9555825085
9555834057
9555841381
9555849743
9555855297
9555864819
9555870983
9555880016
9555888561
9555897900
9555905651
9555912670
9555918652
9555928417
9555934582
9555944897
9555953991
9555960888
9555969189
9555976269
9555983471
9555992504
9556000927
9556008251
9556016857
9556023632
9556031261
9556040172
9556047313
9556054271
9556062450
9556071361
9556083141
9556089427
9556097728
9556103527
9556112560
9556120922
9556129161
9556138744
9556147289
9556155162
9556163646
9556168834
9556177562
9556185069
9556193919
9556203319
9556210460
9556217723
9556224681
9556232005
9556237865
9556245982
9556254161
9556263560
9556269725
9556277781
9556288096
9556296214
9556302440
9556315379
9556323558
9556331126
9556339122
9556347667
9556355052
9556362864
9556371653
9556380015
9556387705
9556395884
9556404978
9556411143
9556420664
9556426219
9556436411
9556445384
9556452158
9556457652
9556467783
9556471568
9556481699
9556489207
9556497630
9556506174
9556513499
9556521250
9556528269
9556536448
9556547922
9556557993
9556565256
9556573923
9556581492
9556588999
9556596018
9556604441
9556612436
9556621225
9556628122
9556635447
9556642954
9556651438
9556657663
9556665171
9556675302
9556681894
9556692209
9556699228
9556707285
9556715830
9556723459
9556730722
9556738657
9556747812
9556753915
9556761057
9556767648
9556773325
9556783517
9556790720
9556796823
9556803293
9556810861
9556818796
9556826608
9556834299
9556839364
9556848276
9556855539
9556861642
9556869638
9556877267
9556885385
9556892221
9556900461
9556908761
9556913217
9556922006
9556929452
9556935006
9556941659
9556947519
9556954538
9556961923
9556968881
9556975289
9556980050
9556988839
9556993417
9557001473
9557007333
9557013558
9557019967
9557025887
9557032540
9557039803
9557043893
9557055062
9557062203
9557066659
9557074349
9557081002
9557086434
9557094186
9557102853
9557110482
9557116830
9557124215
9557133858
9557139474
9557146371
9557156685
9557163033
9557168465
9557177132
9557183053
9557192330
9557197701
9557206429
9557212960
9557219979
9557224862
9557231942
9557237557
9557245186
9557250740
9557258614
9557264412
9557271614
9557278939
9557285958
9557293465
9557298653
9557306465
9557313606
9557319771
9557326058
9557333443
9557338387
9557346016
9557352730
9557358711
9557367439
9557373726
9557380501
9557386726
9557394539
9557402412
9557407478
9557416450
9557422249
9557430733
9557437874
9557443916
9557449837
9557457222
9557465034
9557472297
9557478279
9557487739
9557493293
9557501960
9557507759
9557515754
9557523323
9557530220
9557537971
9557544380
9557551948
9557558967
9557566474
9557572822
9557580451
9557586921
9557595710
9557603828
9557609565
9557617256
9557625007
9557630134
9557638557
9557644904
9557653632
9557660346
9557668647
9557674201
9557682746
9557688911
9557697272
9557702399
9557711311
9557719306
9557725043
9557732062
9557740607
9557746284
9557755012
9557760810
9557770698
9557779487
9557785590
9557793769
9557799750
9557808783
9557818183
9557824836
9557835395
9557845160
9557853644
9557861884
9557867926
9557877387
9557883307
9557891669
9557898261
9557907050
9557914984
9557925971
9557932868
9557939520
9557945258
9557952948
9557962225
9557969000
9557974799
9557982611
9557990118
9557997504
9558005011
9558011114
9558018866
9558026373
9558033942
9558039618
9558047674
9558053595
9558062323
9558068304
9558077643
9558083563
9558091925
9558097906
9558106512
9558110296
9558122076
9558125921
9558136236
9558142889
9558151495
9558158087
9558167547
9558174932
9558183355
9558189703
9558197820
9558205328
9558212591
9558218267
9558224737
9558231695
9558236395
9558242986
9558247686
9558256231
9558260870
9558268377
9558274419
9558279974
9558284734
9558292608
9558297308
9558305608
9558311162
9558317998
9558324346
9558329595
9558334661
9558341741
9558348577
9558355474
9558360052
9558367437
9558374517
9558380620
9558385076
9558391973
9558398870
9558404912
9558410405
9558416509
9558422796
9558428777
9558435674
9558441899
9558448186
9558453862
9558460576
9558466069
9558470830
9558476873
9558483037
9558489690
9558495122
9558502812
9558508550
9558514470
9558518559
9558526616
9558532964
9558539250
9558545903
9558551946
9558556889
9558562810
9558569218
9558575383
9558582341
9558586613
9558593938
9558599309
9558605534
9558611394
9558616093
9558622807
9558628422
9558634038
9558639531
9558645024
9558650944
9558656743
9558662846
9558669011
9558674809
9558680363
9558686284
9558692692
9558698918
9558705327
9558710637
9558717289
9558723820
9558729618
9558735600
9558741459
9558747380
9558753483
9558759709
9558765873
9558771794
9558778141
9558784184
9558790531
9558797001
9558801701
9558809757
9558814823
9558822575
9558828556
9558835636
9558841068
9558848454
9558856815
9558863041
9558868656
9558874638
9558881474
9558887638
9558892765
9558900211
9558907108
9558912540
9558919254
9558924442
9558931156
9558937137
9558945621
9558952335
9558957218
9558965580
9558970951
9558977665
9558982853
9558990787
9558996158
9559002933
9559009037
9559015079
9559021610
9559026249
9559034488
9559041263
9559047977
9559052616
9559059391
9559067264
9559077457
9559084293
9559094181
9559103519
9559110416
9559119449
9559127139
9559135318
9559143314
9559151553
9559159610
9559166385
9559173282
9559179630
9559186038
9559192386
9559200198
9559206790
9559211490
9559219485
9559225162
9559231631
9559237735
9559245059
9559251834
9559257693
9559263675
9559269595
9559276980
9559283267
9559289493
9559298953
9559305056
9559310977
9559317202
9559324710
9559330691
9559336550
9559344241
9559349978
9559355715
9559362429
9559369754
9559375857
9559381961
9559388186
9559394229
9559401492
9559408816
9559415347
9559420779
9559427432
9559434756
9559442202
9559448245
9559454165
9559460085
9559466555
9559471072
9559477358
9559486086
9559491946
9559497866
9559504824
9559511050
9559516665
9559523379
9559529116
9559535708
9559542849
9559549868
9559554568
9559561464
9559567141
9559573427
9559580935
9559588381
9559593386
9559599428
9559606691
9559613466
9559618837
9559625734
9559633913
9559639345
9559648378
9559655031
9559661928
9559667116
9559674929
9559682436
9559688112
9559695802
9559704592
9559715883
9559723024
9559729189
9559735536
9559743959
9559756960
9559765382
9559773683
9559779604
9559788148
9559793947
9559802675
9559809877
9559817140
9559823122
9559829774
9559836244
9559842103
9559848390
9559860536
9559866762
9559873414
9559878175
9559884645
9559890748
9559896852
9559902955
9559909120
9559916749
9559921754
9559929322
9559936586
9559944398
9559950196
9559957460
9559963807
9559969483
9559976686
9559981690
9559989320
9559994264
9560001954
9560006959
9560014039
9560020081
9560027528
9560033082
9560039735
9560045411
9560051698
9560057313
9560063172
9560069459
9560074891
9560079530
9560085267
9560090821
9560096741
9560104127
9560109559
9560115235
9560121339
9560127381
9560134034
9560139649
9560144410
9560150330
9560156434
9560161561
9560166749
9560174012
9560179261
9560184632
9560191529
9560196045
9560202210
9560209717
9560214417
9560221985
9560227539
9560233765
9560240357
9560244873
9560253235
9560259949
9560265747
9560273621
9560278748
9560287049
9560292725
9560301209
9560309570
9560316162
9560323242
9560328796
9560334473
9560341797
9560348511
9560355408
9560361694
9560367187
9560372620
9560379517
9560387024
9560391601
9560400696
9560405945
9560413147
9560420288
9560426758
9560432129
9560438721
9560446045
9560452331
9560459167
9560464355
9560471679
9560476562
9560485473
9560492187
9560499206
9560504089
9560511169
9560517150
9560524108
9560529174
9560536254
9560541626
9560550170
9560556213
9560562683
9560568054
9560574401
9560580505
9560590026
9560598510
9560604980
9560616454
9560621520
9560630065
9560635436
9560642638
9560650573
9560656677
9560662231
9560668273
9560674316
9560678893
9560687926
9560693969
9560701049
9560707641
9560713622
9560719543
9560725768
9560733703
9560739989
9560746764
9560751403
9560760314
9560766295
9560772643
9560779662
9560787597
9560792785
9560798339
9560805236
9560811095
9560817687
9560822264
9560829589
9560837157
9560844664
9560854247
9560860961
9560868651
9560873412
9560880980
9560888487
9560896727
9560902342
9560910094
9560917113
9560923949
9560929198
9560937071
9560944029
9560950255
9560955870
9560962157
9560968871
9560975096
9560981078
9560987425
9560994444
9560999083
9561007506
9561012144
9561020628
9561025328
9561031676
9561040220
9561045592
9561050474
9561059935
9561066649
9561072813
9561078001
9561086546
9561093809
9561101561
9561107237
9561114744
9561118345
9561126768
9561135435
9561141661
9561148741
9561156492
9561162535
9561168577
9561176145
9561182310
9561188597
9561196470
9561203306
9561209409
9561215635
9561223448
9561229734
9561235960
9561244199
9561250974
9561256712
9561265501
9561271177
9561279295
9561287962
9561294553
9561300169
9561308225
9561314084
9561322690
9561330198
9561336790
9561344480
9561351133
9561358762
9561366697
9561374204
9561380552
9561387998
9561394956
9561402402
9561407163
9561415647
9561422605
9561431821
9561437741
9561445798
9561452024
9561459592
9561466306
9561472226
9561478391
9561484494
9561488767
9561497006
9561502194
9561510861
9561533200
9561545773
9561556332
9561564938
9561573910
9561582394
9561591428
9561600400
9561609250
9561615842
9561622555
9561628415
9561633786
9561640439
9561645688
9561651303
9561657345
9561663571
9561669613
9561675351
9561681088
9561686886
9561692563
9561698361
9561704953
9561711239
9561717160
9561723080
9561727780
9561733761
9561738034
9561746029
9561751766
9561757809
9561763668
9561767636
9561775082
9561781674
9561787533
9561793636
9561797909
9561804073
9561809200
9561814083
9561817989
9561825192
9561829525
9561836971
9561841488
9561847225
9561852596
9561857723
9561863155
9561869991
9561876461
9561880733
9561886959
9561893062
9561897701
9561903011
9561909298
9561916622
9561922237
9561927547
9561932918
9561939510
9561943416
9561950863
9561957149
9561963619
9561969539
9561974971
9561980831
9561986812
9561992183
9561999874
9562007442
9562011837
9562019039
9562025569
9562030757
9562037532
9562044551
9562050472
9562056514
9562062496
9562068416
9562073299
9562079158
9562085018
9562091121
9562097896
9562104793
9562113094
9562119869
9562126949
9562134029
9562140926
9562146480
9562154964
9562161067
9562168269
9562175899
9562182674
9562189143
9562196956
9562202876
9562209102
9562215022
9562222041
9562228023
9562233516
9562239802
9562246882
9562252986
9562258845
9562264888
9562270808
9562275935
9562282588
9562289119
9562295527
9562301936
9562308589
9562317744
9562323603
9562330561
9562337397
9562342829
9562349909
9562356013
9562361689
9562367549
9562373896
9562378840
9562386408
9562390925
9562398432
9562403010
9562410212
9562414790
9562422968
9562429499
9562435236
9562441645
9562446772
9562452509
9562459040
9562465998
9562472407
9562478632
9562485163
9562491877
9562497736
9562503474
9562509455
9562514460
9562521540
9562528864
9562533442
9562541132
9562545588
9562554072
9562559260
9562565485
9562573603
9562579401
9562584223
9562592402
9562599115
9562604609
9562609369
9562617914
9562623712
9562631464
9562637689
9562643183
9562648920
9562656122
9562662775
9562668756
9562675653
9562681513
9562687128
9562694452
9562700556
9562708124
9562713007
9562721368
9562730890
9562736139
9562743463
9562748590
9562755243
9562762445
9562770013
9562777521
9562784845
9562792474
9562800104
9562805963
9562816278
9562823663
9562829706
9562836908
9562844232
9562848871
9562857843
9562864251
9562870538
9562875604
9562883355
9562891290
9562896356
9562905511
9562910638
9562920098
9562928033
9562935174
9562943841
9562951226
9562958306
9562964959
9562968865
9562979180
9562984612
9562991265
9563000115
9563006829
9563011956
9563020501
9563025933
9563033074
9563040276
9563045708
9563053399
9563061700
9563066766
9563073479
9563080254
9563087090
9563093499
9563099785
9563105401
9563111809
9563116082
9563123711
9563127862
9563135003
9563139275
9563147454
9563153985
9563160576
9563165032
9563171624
9563175591
9563181817
9563187493
9563193474
9563200737
9563206597
9563212700
9563219292
9563224785
9563232415
9563237664
9563243340
9563249871
9563255913
9563261772
9563268791
9563273125
9563280327
9563284844
9563292351
9563298882
9563303703
9563307976
9563316460
9563319328
9563327812
9563334709
9563339531
9563345390
9563350700
9563356621
9563361748
9563367973
9563372490
9563384453
9563389702
9563398064
9563403740
9563410087
9563417595
9563423698
9563430107
9563435966
9563441398
9563447258
9563453361
9563460258
9563465568
9563471794
9563476616
9563482902
9563488639
9563494316
9563499809
9563504631
9563512626
9563518608
9563525138
9563529899
9563536369
9563542900
9563548759
9563556816
9563562431
9563568717
9563574088
9563579887
9563585746
9563593742
9563599479
9563605766
9563610038
9563617790
9563624809
9563632255
9563638419
9563643363
9563651664
9563659049
9563664237
9563672660
9563678580
9563687919
9563693778
9563699760
9563704154
9563711051
9563718070
9563726005
9563732413
9563738334
9563743949
9563749320
9563755179
9563761832
9563769034
9563774588
9563780143
9563786246
9563791678
9563797660
9563804007
9563811332
9563819144
9563824698
9563831046
9563836112
9563843009
9563848868
9563855277
9563864127
9563870169
9563876578
9563885001
9563890372
9563898245
9563906485
9563912283
9563920035
9563927237
9563934866
9563941336
9563949393
9563957144
9563966666
9563971793
9563977774
9563985037
9563993338
9563999991
9564006827
9564011465
9564019339
9564024038
9564030813
9564037161
9564044790
9564051443
9564057058
9564061941
9564069632
9564074270
9564081961
9564086721
9564095633
9564101675
9564107168
9564113577
9564120718
9564125173
9564132193
9564137930
9564145254
9564150686
9564157705
9564165457
9564170156
9564177725
9564183950
9564190115
9564197012
9564204397
9564211538
9564218801
9564223989
9564231130
9564238027
9564244253
9564252309
9564259328
9564266470
9564272756
9564279897
9564287099
9564294179
9564300283
9564307485
9564314565
9564321523
9564329030
9564334218
9564341543
9564348623
9564354543
9564361440
9564369619
9564374868
9564382985
9564390859
9564397329
9564405812
9564412648
9564421071
9564427907
9564435292
9564441396
9564448354
9564456960
9564463613
9564470082
9564478627
9564485585
9564494252
9564500234
9564507436
9564515431
9564523427
9564530446
9564537160
9564544606
9564551259
9564557301
9564565602
9564573720
9564582509
9564588185
9564595936
9564609303
9564616932
9564624562
9564631032
9564639271
9564647877
9564655507
9564660878
9564671009
9564676503
9564684742
9564691761
9564698292
9564703358
9564710194
9564717030
9564724659
9564729237
9564736439
9564741078
9564749439
9564754139
9564762379
9564767201
9564775196
9564779774
9564787281
9564792957
9564800892
9564806873
9564814137
9564819935
9564827808
9564832325
9564839161
9564844410
9564851185
9564857410
9564864307
9564870899
9564877003
9564883961
9564888721
9564895679
9564901905
9564907886
9564914173
9564920765
9564925525
9564933582
9564938343
9564945545
9564952198
9564957691
9564962269
9564969654
9564975879
9564980518
9564985401
9564991565
9564997486
9565003589
9565010303
9565015796
9565021778
9565025867
9565032947
9565036975
9565043689
9565050586
9565056934
9565062305
9565067554
9565072925
9565078174
9565083118
9565089710
9565095691
9565101428
9565107471
9565113513
9565118823
9565124316
9565132434
9565137317
9565142017
9565149158
9565153735
9565160022
9565164661
9565172534
9565178577
9565183093
9565190723
9565197314
9565204577
9565211413
9565218127
9565226123
9565233264
9565240283
9565245166
9565251880
9565258166
9565264087
9565271045
9565276782
9565283130
9565289660
9565295459
9565301745
9565310778
9565316027
9565322436
9565327746
9565334460
9565341052
9565347155
9565352709
9565360095
9565365832
9565375170
9565383471
9565392260
9565401171
9565411120
9565416674
9565424548
9565431261
9565437853
9565444506
9565450182
9565455675
9565461962
9565467821
9565473742
9565481798
9565488085
9565495165
9565501574
9565508593
9565516161
9565521288
9565527880
9565533922
9565540270
9565546190
9565552416
9565560778
9565566271
9565572252
9565578844
9565584887
9565590868
9565594957
9565602037
9565608812
9565615221
9565621691
9565627672
9565633715
9565638292
9565645006
9565651781
9565659044
9565663805
9565670336
9565674852
9565681688
9565686144
9565694383
9565701463
9565706712
9565712022
9565718492
9565724535
9565731004
9565735765
9565742906
9565749681
9565755907
9565761766
9565767686
9565774644
9565780504
9565786180
9565792345
9565798631
9565806566
9565814073
9565819017
9565828172
9565834337
9565842332
9565851121
9565854173
9565862962
9565869432
9565874376
9565880418
9565888230
9565895433
9565901658
9565906724
9565913011
9565920030
9565926499
9565932603
9565939500
9565945115
9565952439
9565960740
9565966783
9565976670
9565983689
9565990464
9565994248
9566005784
9566012009
9566018418
9566025620
9566032212
9566037705
9566045823
9566051926
9566060532
9566065293
9566074204
9566079758
9566086716
9566092454
9566100999
9566107895
9566118332
9566124558
9566130600
9566135911
9566143967
9566150010
9566159226
9566166001
9566173874
9566181565
9566187912
9566195603
9566201462
9566209275
9566214340
9566223618
9566232529
9566238632
9566246018
9566252793
9566259690
9566266281
9566271897
9566279465
9566289719
9566296799
9566302719
9566310593
9566318222
9566325607
9566331528
9566338730
9566347458
9566355759
9566361496
9566371078
9566376572
9566385300
9566391769
9566398971
9566405563
9566410507
9566416733
9566422409
9566426620
9566432968
9566439377
9566446518
9566453109
9566458053
9566466354
9566471054
9566479660
9566485885
9566493698
9566501510
9566507614
9566515792
9566522018
9566529403
9566533798
9566540695
9566547347
9566553451
9566559188
9566565536
9566571945
9566577926
9566584457
9566591293
9566596114
9566601974
9566608443
9566614242
9566619918
9566625411
9566631332
9566638351
9566643844
9566649947
9566655746
9566661361
9566668563
9566673690
9566680465
9566687301
9566692245
9566698714
9566704391
9566710494
9566716353
9566723617
9566729415
9566734115
9566740584
9566746688
9566752852
9566757369
9566764388
9566770919
9566775924
9566782332
9566786971
9566794844
9566801131
9566806807
9566812545
9566819319
9566825789
9566832869
9566836836
9566844161
9566851119
9566856307
9566861495
9566868208
9566874190
9566880476
9566886885
9566893599
9566899397
9566908125
9566914290
9566920699
9566927412
9566933516
9566939986
9566946699
9566953657
9566960066
9566969710
9566978560
9566983443
9566990889
9567003157
9567011091
9567019087
9567026289
9567033186
9567039717
9567047590
9567054304
9567059919
9567067122
9567072859
9567079267
9567086958
9567093306
9567099653
9567106184
9567112532
9567119795
9567126142
9567133894
9567138777
9567147322
9567153608
9567160871
9567165693
9567172773
9567178816
9567186323
9567192243
9567199262
9567204755
9567211958
9567218977
9567225385
9567232465
9567239118
9567244855
9567251142
9567258588
9567263654
9567272016
9567276838
9567284711
9567289777
9567298566
9567301740
9567310651
9567315778
9567322980
9567330121
9567337446
9567343183
9567350385
9567356733
9567363874
9567370954
9567377484
9567384320
9567390668
9567396283
9567402387
9567409040
9567415448
9567422223
9567427167
9567435956
9567441266
9567449079
9567456220
9567463056
9567470380
9567478253
9567485700
9567492474
9567496259
9567507001
9567512128
9567519269
9567524213
9567531354
9567537701
9567543988
9567550397
9567558026
9567564557
9567570904
9567576031
9567583233
9567591595
9567598858
9567610394
9567616986
9567623700
9567633526
9567639752
9567647686
9567657208
9567663495
9567670269
9567678570
9567684979
9567691510
9567697003
9567705975
9567712384
9567720135
9567726910
9567733013
9567740582
9567746563
9567752850
9567761028
9567768170
9567774334
9567782024
9567788128
9567794537
9567802349
9567808575
9567816814
9567823711
9567829754
9567836468
9567844768
9567851299
9567858501
9567866558
9567873150
9567881878
9567888531
9567895855
9567902508
9567908306
9567915935
9567923382
9567929912
9567937359
9567943950
9567951397
9567958294
9567965679
9567972026
9567979351
9567985027
9567992290
9567999370
9568005474
9568012187
9568018413
9568023784
9568029949
9568036357
9568043193
9568049480
9568055644
9568062053
9568066875
9568074809
9568079570
9568086101
9568092204
9568099651
9568104411
9568111858
9568116618
9568124065
9568130351
9568137248
9568143046
9568148906
9568155498
9568161662
9568168559
9568173808
9568180583
9568186870
9568192912
9568199077
9568204997
9568211162
9568215678
9568223918
9568229655
9568235820
9568241557
9568247783
9568253764
9568260295
9568266825
9568273722
9568281108
9568286784
9568292704
9568298747
9568304911
9568311381
9568319071
9568324565
9568330851
9568336344
9568341776
9568347331
9568354411
9568359049
9568366679
9568371623
9568377787
9568382548
9568388773
9568394999
9568401408
9568406718
9568412211
9568417277
9568423930
9568430399
9568436137
9568443034
9568448893
9568454386
9568458964
9568466471
9568473124
9568478251
9568484476
9568490946
9568498026
9568503641
9568509195
9568514933
9568522074
9568526529
9568533793
9568541422
9568548685
9568553751
9568560953
9568568094
9568574442
9568579020
9568587076
9568595194
9568599955
9568607645
9568614054
9568619242
9568625833
9568632913
9568639322
9568644876
9568651224
9568657327
9568663614
9568669718
9568676004
9568683450
9568688760
9568696512
9568702554
9568709818
9568712991
9568722025
9568728677
9568735208
9568741189
9568747964
9568753641
9568759744
9568766336
9568771158
9568781534
9568788797
9568794961
9568800088
9568806192
9568812417
9568817178
9568828347
9568834085
9568842019
9568847146
9568854287
9568860086
9568867776
9568875222
9568881082
9568888406
9568899148
9568906350
9568911477
9568919290
9568925637
9568933572
9568940286
9568946694
9568951638
9568958779
9568963662
9568970620
9568975930
9568983071
9568990273
9568996743
9569001809
9569009072
9569016030
9569022500
9569028786
9569035256
9569041726
9569048012
9569055031
9569059731
9569066567
9569072854
9569079690
9569084633
9569093850
9569100197
9569105935
9569110940
9569119729
9569126076
9569131691
9569137795
9569145485
9569152077
9569157753
9569164467
9569171730
9569178444
9569184670
9569191933
9569198036
9569205361
9569211403
9569216713
9569226113
9569232582
9569238747
9569247048
9569253151
9569259560
9569267250
9569277321
9569285194
9569290321
9569298012
9569306007
9569312721
9569319496
9569324867
9569331337
9569340248
9569348671
9569358436
9569364296
9569372108
9569378334
9569387184
9569393837
9569402931
9569408607
9569418129
9569426796
9569433937
9569442299
9569449318
9569453407
9569463539
9569469032
9569479286
9569488380
9569495521
9569501258
9569510353
9569517250
9569528053
9569535865
9569543250
9569550819
9569559120
9569568397
9569578407
9569585609
9569595557
9569602210
9569612098
9569620521
9569630469
9569637000
9569642554
9569650123
9569655555
9569665443
9569672828
9569679175
9569685889
9569692664
9569696937
9569703162
9569708716
9569714271
9569720618
9569727332
9569734351
9569739295
9569746375
9569753333
9569758826
9569765967
9569771094
9569779029
9569786719
9569791419
9569802344
9569808631
9569817053
9569824195
9569830176
9569835608
9569842688
9569849463
9569855139
9569860693
9569867224
9569873267
9569879248
9569884985
9569892126
9569898474
9569904944
9569910681
9569916296
9569920996
9569928076
9569933020
9569937353
9569945959
9569951086
9569955969
9569963049
9569967871
9569974280
9569979834
9569986242
9569991003
9569998449
9570002783
9570009497
9570015539
9570020727
9570027502
9570032568
9570040869
9570045568
9570051916
9570057653
9570064001
9570068335
9570075170
9570079809
9570088964
9570095922
9570101538
9570106848
9570114965
9570122228
9570130407
9570135839
9570144323
9570150793
9570157140
9570162023
9570169836
9570175207
9570180944
9570188085
9570192785
9570200658
9570206457
9570213476
9570219091
9570226171
9570232824
9570239110
9570243993
9570250951
9570257970
9570264989
9570271093
9570277379
9570283727
9570290197
9570297704
9570304479
9570309789
9570316198
9570323705
9570328405
9570336339
9570341100
9570348302
9570354711
9570360936
9570368932
9570376073
9570381810
9570387242
9570394445
9570399999
9570405980
9570413060
9570419469
9570426671
9570433995
9570440343
9570446629
9570452855
9570458592
9570465306
9570472569
9570478551
9570484959
9570489354
9570495824
9570501561
9570508824
9570515599
9570521092
9570527440
9570533665
9570540379
9570546361
9570554356
9570559788
9570567967
9570573643
9570578953
9570585850
9570592869
9570601353
9570607274
9570615208
9570619725
9570628148
9570634190
9570641148
9570648411
9570654515
9570661106
9570668431
9570674656
9570681248
9570689183
9570695164
9570701512
9570711094
9570718601
9570725620
9570732823
9570740208
9570748142
9570755955
9570763828
9570771214
9570775974
9570783421
9570790867
9570798130
9570804661
9570812046
9570817966
9570823582
9570830418
9570839085
9570845005
9570851841
9570857334
9570865391
9570870640
9570879978
9570889988
9570898899
9570906955
9570913059
9570920078
9570928196
9570934177
9570942661
9570950412
9570956760
9570965244
9570971225
9570978427
9570986301
9570995029
9571001865
9571009006
9571015659
9571022861
9571027866
9571037204
9571044223
9571051486
9571058749
9571065036
9571072299
9571076816
9571085422
9571095187
9571101840
9571109775
9571115939
9571124179
9571129916
9571137546
9571147494
9571154758
9571161471
9571170199
9571177768
9571182284
9571191928
9571199435
9571205539
9571213595
9571221835
9571228000
9571234469
9571242831
9571249057
9571255893
9571263339
9571268893
9571275790
9571282382
9571287997
9571293368
9571299105
9571305148
9571310336
9571318942
9571325411
9571332552
9571338412
9571345126
9571350863
9571359408
9571368197
9571375643
9571382662
9571389498
9571396639
9571402621
9571409579
9571416231
9571421542
9571428072
9571434420
9571440829
9571447665
9571452364
9571458651
9571464754
9571470797
9571475741
9571483675
9571488863
9571495577
9571502596
9571506868
9571514254
9571519686
9571525057
9571531038
9571537264
9571543795
9571550875
9571556368
9571561861
9571567598
9571573641
9571580782
9571587374
9571591463
9571598726
9571606478
9571611971
9571618685
9571624483
9571629610
9571635713
9571642427
9571649507
9571656709
9571661897
9571667879
9571674165
9571680818
9571686861
9571692903
9571716585
9571723909
9571730257
9571735689
9571742036
9571747590
9571753572
9571760225
9571765230
9571773775
9571780671
9571786348
9571792268
9571796907
9571804963
9571810640
9571817170
9571823213
9571831697
9571840120
9571847810
9571854280
9571861604
9571869111
9571877290
9571885652
9571893037
9571898896
9571910249
9571917756
9571923249
9571932221
9571938264
9571945039
9571951264
9571957734
9571963837
9571971406
9571977509
9571984040
9571991059
9571996064
9572003815
9572010712
9572016450
9572022065
9572029755
9572036286
9572043000
9572049409
9572055878
9572061677
9572068879
9572076447
9572082367
9572088288
9572096161
9572101227
9572108613
9572115204
9572122345
9572126923
9572135102
9572142548
9572148835
9572155182
9572162934
9572170319
9572174530
9572181488
9572189789
9572195648
9572202790
9572209748
9572217438
9572224396
9572230805
9572236603
9572242828
9572251495
9572257416
9572263947
9572270294
9572277130
9572282196
9572288910
9572295807
9572304047
9572309906
9572315338
9572321442
9572328644
9572333710
9572341827
9572349518
9572355926
9572362823
9572368011
9572375274
9572381378
9572389068
9572397186
9572403045
9572410370
9572418304
9572425567
9572432953
9572441131
9572449493
9572459625
9572473541
9572480987
9572488006
9572495208
9572502593
9572508453
9572515289
9572522735
9572528411
9572538543
9572545440
9572554046
9572561614
9572570159
9572576690
9572583770
9572590362
9572595611
9572604827
9572612212
9572619537
9572625030
9572633636
9572638885
9572646392
9572654632
9572660491
9572667571
9572674895
9572679961
9572687285
9572694304
9572704192
9572711150
9572720671
9572727691
9572736785
9572745879
9572749236
9572760955
9572769927
9572775664
9572783171
9572789214
9572796233
9572803130
9572806426
9572814482
9572822417
9572828642
9572833830
9572840666
9572847319
9572853301
9572858244
9572864531
9572870696
9572876677
9572883086
9572889128
9572895171
9572901213
9572907866
9572914213
9572920073
9572924101
9572930571
9572934904
9572942839
9572946928
9572954680
9572960661
9572967375
9572972441
9572978605
9572983732
9572989897
9572995512
9573001371
9573008390
9573013273
9573019621
9573028532
9573038176
9573044706
9573051359
9573055632
9573065824
9573072538
9573077421
9573085783
9573092008
9573099638
9573105619
9573111906
9573117460
9573122770
9573130827
9573136930
9573141691
9573149320
9573154752
9573160917
9573166227
9573173307
9573180631
9573186796
9573192228
9573196378
9573204191
9573208585
9573216398
9573221586
9573227994
9573233365
9573239896
9573246549
9573252653
9573257169
9573265226
9573270597
9573276456
9573282804
9573287198
9573295255
9573301786
9573306791
9573313077
9573319547
9573324186
9573331083
9573336759
9573343839
9573349454
9573358731
9573363858
9573369901
9573377835
9573382596
9573390775
9573395597
9573403409
9573408353
9573415311
9573420438
9573429776
9573436978
9573443997
9573449674
9573459134
9573465848
9573472134
9573478665
9573484891
9573490323
9573496670
9573503323
9573509793
9573516629
9573521451
9573529080
9573533780
9573542691
9573548001
9573555264
9573562222
9573568326
9573574734
9573580838
9573588711
9573593716
9573600857
9573610135
9573615139
9573623074
9573627896
9573635891
9573640835
9573649807
9573660794
9573665676
9573673855
9573679409
9573687344
9573692593
9573701382
9573706692
9573715603
9573721096
9573728237
9573734219
9573741421
9573746975
9573754177
9573759792
9573766995
9573773647
9573780117
9573785061
9573792202
9573799465
9573805996
9573812954
9573819424
9573825283
9573831814
9573837368
9573843899
9573850551
9573857021
9573864528
9573870998
9573877285
9573883754
9573889309
9573895839
9573902736
9573907558
9573914882
9573920131
9573929287
9573935817
9573943630
9573949733
9573957790
9573964626
9573971584
9573977687
9573985622
9573990627
9573998195
9574005824
9574013027
9574020229
9574027370
9574034206
9574039577
9574046291
9574053066
9574060085
9574067165
9574075038
9574082179
9574089137
9574094813
9574102382
9574109828
9574118068
9574124171
9574133021
9574139491
9574146937
9574157619
9574166957
9574172206
9574180812
9574189601
9574196437
9574203090
9574210963
9574218165
9574225306
9574232936
9574242396
9574250941
9574257411
9574264857
9574274073
9574278224
9574288294
9574294703
9574304286
9574311244
9574321620
9574328272
9574337611
9574347254
9574354578
9574363795
9574371546
9574381556
9574391383
9574397486
9574406519
9574411890
9574420008
9574425379
9574433863
9574439478
9574446924
9574454371
9574461207
9574467920
9574475001
9574480127
9574488489
9574493250
9574501551
9574506861
9574513575
9574516565
9574525171
9574530909
9574537806
9574543970
9574549402
9574556360
9574561792
9574568140
9574574976
9574579248
9574586756
9574593653
9574600611
9574605493
9574612268
9574618555
9574624597
9574630457
9574636560
9574644312
9574648889
9574655115
9574661218
9574667810
9574672449
9574680566
9574685144
9574693079
9574698816
9574705774
9574712427
9574718774
9574724817
9574730249
9574735864
9574741418
9574747156
9574752649
9574758386
9574764001
9574770898
9574777429
9574782190
9574787439
9574793725
9574800195
9574805139
9574810693
9574817102
9574823632
9574829431
9574835107
9574840783
9574846154
9574854577
9574860864
9574866357
9574872460
9574878808
9574885522
9574892663
9574898767
9574905114
9574911462
9574918359
9574925500
9574929772
9574936791
9574946130
9574953393
9574961388
9574970483
9574977990
9574987206
9574994469
9575000329
9575006432
9575013634
9575019189
9575025780
9575032738
9575039330
9575044030
9575050683
9575058190
9575064599
9575070031
9575076439
9575083336
9575090416
9575097863
9575103173
9575110619
9575118126
9575125389
9575133019
9575139855
9575146141
9575152367
9575158104
9575164330
9575169640
9575175926
9575183190
9575192345
9575198082
9575204613
9575211693
9575217674
9575224449
9575229759
9575238426
9575244896
9575249474
9575256798
9575261498
9575270226
9575276695
9575283897
9575290367
9575296837
9575303245
9575309715
9575315452
9575321983
9575328575
9575335533
9575343040
9575347618
9575354454
9575361717
9575366966
9575374351
9575379783
9575387779
9575393821
9575399254
9575405418
9575411766
9575417564
9575423790
9575434410
9575440452
9575446739
9575452781
9575459739
9575465293
9575473838
9575480796
9575487815
9575493553
9575500511
9575506675
9575512901
9575520286
9575528281
9575534141
9575540366
9575548362
9575553855
9575562400
9575567893
9575575156
9575582420
9575589500
9575597007
9575603538
9575608298
9575615439
9575621970
9575629905
9575635215
9575642722
9575648398
9575653830
9575661155
9575666831
9575671836
9575680686
9575686911
9575693869
9575699973
9575706992
9575711570
9575719199
9575724997
9575732810
9575739157
9575746909
9575753684
9575760764
9575767417
9575774314
9575779196
9575787314
9575792868
9575800864
9575808005
9575813925
9575821066
9575827231
9575834799
9575841086
9575848044
9575855856
9575859457
9575870077
9575875021
9575883627
9575887595
9575898215
9575906027
9575912558
9575918234
9575928427
9575932211
9575942404
9575946310
9575956930
9575962546
9575970480
9575976400
9575984457
9575992270
9575999716
9576005392
9576011374
9576021505
9576030477
9576038778
9576046774
9576052694
9576060812
9576066854
9576076010
9576083090
9576092367
9576098532
9576107626
9576113790
9576122518
9576128561
9576137533
9576145406
9576152853
9576157980
9576164877
9576170980
9576177389
9576183248
9576190267
9576196188
9576204122
9576211507
9576218160
9576225179
9576230550
9576237020
9576243978
9576249349
9576256978
9576266561
9576271444
9576278463
9576286519
9576294210
9576299825
9576306661
9576311788
9576318502
9576323751
9576330648
9576336934
9576343282
9576347982
9576354634
9576360921
9576366963
9576373372
9576380879
9576386617
9576391133
9576398885
9576404927
9576411214
9576417317
9576422688
9576428548
9576434224
9576439351
9576444905
9576452412
9576456624
9576463155
9576467305
9576475178
9576478108
9576487385
9576496113
9576503377
9576511189
9576519002
9576525715
9576532734
9576537678
9576543660
9576550129
9576556294
9576562153
9576567280
9576574421
9576579731
9576584980
9576590962
9576597920
9576603108
9576609944
9576616902
9576622761
9576628926
9576636189
9576642536
9576647847
9576653401
9576660969
9576666767
9576673176
9576678547
9576684284
9576692402
9576697956
9576705525
9576711628
9576718830
9576724201
9576730305
9576738606
9576744587
9576749714
9576758015
9576763447
9576771931
9576776691
9576784809
9576792438
9576798542
9576804340
9576810871
9576818195
9576825641
9576832966
9576840107
9576846393
9576855121
9576861896
9576867389
9576873859
9576880634
9576888019
9576893329
9576901325
9576907184
9576914325
9576920368
9576928058
9576933918
9576939838
9576947467
9576952716
9576960224
9576966999
9576974567
9576980365
9576987323
9576993488
9576999957
9577004474
9577013690
9577021320
9577027484
9577034137
9577041522
9577046466
9577052386
9577059283
9577067340
9577072040
9577080402
9577085345
9577091937
9577097858
9577104571
9577112933
9577118365
9577124957
9577130694
9577136432
9577142474
9577149432
9577156573
9577162188
9577168963
9577175555
9577181353
9577187518
9577194903
9577201983
9577208331
9577214923
9577221637
9577227557
9577236529
9577242877
9577251544
9577258319
9577265948
9577273150
9577279925
9577286700
9577295062
9577302935
9577310503
9577316241
9577322894
9577330279
9577337237
9577344256
9577353838
9577361651
9577368792
9577376482
9577381670
9577393877
9577400957
9577410052
9577419634
9577424029
9577435259
9577442583
9577451128
9577458269
9577465044
9577471514
9577478289
9577482927
9577490679
9577498125
9577505632
9577513079
9577518022
9577526873
9577530901
9577540666
9577547624
9577554460
9577561052
9577568498
9577576311
9577583574
9577591936
9577598345
9577605852
9577614519
9577622087
9577628435
9577636980
9577645708
9577655046
9577662309
9577668962
9577677629
9577685747
9577693376
9577700517
9577708879
9577716203
9577727312
9577733354
9577740373
9577747758
9577754716
9577759538
9577767473
9577773942
9577781083
9577787736
9577793534
9577799333
9577806291
9577813310
9577819169
9577825883
9577832780
9577838334
9577843827
9577850480
9577861772
9577867997
9577874406
9577880265
9577886003
9577891618
9577897477
9577905534
9577912248
9577918290
9577924516
9577930619
9577938187
9577943742
9577948991
9577956193
9577961747
9577969010
9577975541
9577981095
9577988724
9577996171
9578001237
9578009049
9578016373
9578021866
9578028824
9578035721
9578043961
9578050187
9578055802
9578061722
9578067276
9578074112
9578080460
9578086747
9578091446
9578097611
9578103531
9578108841
9578114395
9578120987
9578126908
9578133805
9578139298
9578144913
9578151261
9578157486
9578164139
9578167008
9578175369
9578181717
9578186661
9578192520
9578199356
9578206009
9578211624
9578217545
9578223465
9578229324
9578235306
9578241531
9578248672
9578253677
9578260452
9578265518
9578269974
9578278152
9578284927
9578290787
9578298355
9578304642
9578309097
9578315872
9578322952
9578329178
9578335891
9578340713
9578349319
9578355484
9578360733
9578366287
9578373184
9578379837
9578386490
9578393203
9578398025
9578406387
9578413101
9578418594
9578424270
9578431533
9578438064
9578444595
9578450942
9578457351
9578464675
9578469558
9578477188
9578484634
9578490249
9578495742
9578502517
9578507949
9578514968
9578522048
9578529433
9578537612
9578543533
9578550674
9578558913
9578565139
9578571181
9578582290
9578589187
9578596450
9578603408
9578610488
9578616958
9578625197
9578632461
9578638015
9578644973
9578650466
9578656936
9578663894
9578669387
9578675124
9578681166
9578688308
9578693984
9578701064
9578706435
9578713576
9578720412
9578726882
9578731765
9578738845
9578745680
9578750685
9578758559
9578765151
9578771437
9578778395
9578784621
9578791152
9578797804
9578804335
9578810927
9578817397
9578823744
9578830153
9578837965
9578842970
9578850600
9578855849
9578864516
9578870741
9578877882
9578883742
9578889540
9578897658
9578904127
9578910414
9578918349
9578924208
9578930372
9578936659
9578944410
9578950819
9578958876
9578963392
9578971144
9578977858
9578986219
9578993666
9579000685
9579008314
9579015028
9579022108
9579027296
9579034559
9579041822
9579050123
9579053907
9579063062
9579069288
9579078993
9579085218
9579095289
9579103529
9579110670
9579118055
9579127638
9579134412
9579141553
9579149793
9579156995
9579163404
9579171644
9579176954
9579185377
9579191541
9579200330
9579208570
9579214429
9579226758
9579234998
9579241956
9579248609
9579259839
9579266858
9579276441
9579283765
9579293042
9579300550
9579307141
9579315686
9579321851
9579328992
9579335584
9579343030
9579351026
9579356519
9579363965
9579369275
9579376172
9579379224
9579389111
9579396375
9579402417
9579407910
9579414380
9579420422
9579426465
9579432874
9579437695
9579445935
9579451978
9579457227
9579462598
9579469128
9579475476
9579481641
9579487622
9579493481
9579499951
9579504590
9579511731
9579517773
9579524792
9579530407
9579536206
9579543530
9579550488
9579556591
9579562878
9579569897
9579574902
9579581433
9579588452
9579594921
9579601330
9579607983
9579614392
9579619702
9579625500
9579630810
9579636547
9579642407
9579649914
9579655651
9579661267
9579669201
9579674999
9579681286
9579688610
9579694958
9579699535
9579705456
9579712597
9579719311
9579724865
9579731091
9579737377
9579743359
9579749401
9579753246
9579760937
9579767406
9579773632
9579780346
9579790172
9579794872
9579802135
9579809032
9579817943
9579826183
9579832775
9579839428
9579848217
9579854992
9579861766
9579868419
9579874950
9579881603
9579887706
9579894603
9579900402
9579906505
9579913585
9579919445
9579926464
9579932323
9579941112
9579946483
9579953929
9579961070
9579968212
9579974681
9579982738
9579987926
9579994945
9580002757
9580007884
9580015514
9580021434
9580029613
9580036021
9580041576
9580048656
9580054637
9580060252
9580069041
9580075328
9580081187
9580088695
9580093516
9580102489
9580109935
9580116832
9580123546
9580128367
9580136790
9580142039
9580149913
9580154918
9580161143
9580169078
9580175242
9580181895
9580187754
9580193797
9580200755
9580207469
9580213755
9580219920
9580226206
9580231822
9580238597
9580245494
9580253062
9580258067
9580266490
9580272288
9580277476
9580284678
9580291819
9580300547
9580306406
9580312998
9580319773
9580327525
9580335154
9580342539
9580348093
9580354624
9580359812
9580369395
9580375986
9580382151
9580392893
9580399607
9580407114
9580412058
9580419382
9580426401
9580432688
9580440134
9580446970
9580453867
9580460581
9580466806
9580473398
9580479685
9580486521
9580492319
9580500009
9580506906
9580513254
9580520090
9580527231
9580535227
9580541452
9580549143
9580556772
9580564096
9580570566
9580579355
9580586313
9580594553
9580600534
9580607370
9580613107
9580620309
9580629343
9580636850
9580641428
9580651010
9580658151
9580665109
9580671884
9580677011
9580684701
9580692392
9580700021
9580707834
9580714792
9580723398
9580730111
9580739755
9580743783
9580754525
9580760568
9580769723
9580779062
9580785653
9580794503
9580804086
9580810617
9580817697
9580826058
9580834848
9580843087
9580851937
9580858590
9580866586
9580874215
9580881295
9580888192
9580900033
9580906075
9580914437
9580922555
9580927743
9580935738
9580940804
9580950509
9580958626
9580966866
9580973641
9580981148
9580986947
9580992989
9581003548
9581012765
9581018441
9581025277
9581032113
9581038643
9581044320
9581052742
9581058480
9581065072
9581071480
9581078988
9581084481
9581091011
9581097969
9581102303
9581109200
9581113838
9581121346
9581127693
9581132942
9581140267
9581145516
9581150887
9581157601
9581163948
9581169991
9581177071
9581182930
9581188484
9581193794
9581200508
9581206734
9581212349
9581219063
9581224556
9581231148
9581236946
9581243172
9581248360
9581255806
9581261360
9581266914
9581273079
9581279976
9581285347
9581290657
9581294746
9581303413
9581308723
9581313606
9581319954
9581328254
9581333870
9581341194
9581346931
9581354072
9581359504
9581364387
9581372322
9581378913
9581384773
9581390205
9581396186
9581405342
9581412666
9581417732
9581423408
9581429756
9581438117
9581444404
9581451667
9581458076
9581465400
9581469734
9581477973
9581484931
9581491645
9581498481
9581504768
9581511970
9581519233
9581527168
9581532966
9581541145
9581551582
9581558601
9581565925
9581572761
9581579291
9581585273
9581590156
9581597846
9581603889
9581612311
9581616523
9581625068
9581630195
9581636481
9581645026
9581651374
9581658515
9581665534
9581669745
9581678290
9581684088
9581692023
9581698432
9581704596
9581713385
9581718939
9581726142
9581733100
9581738837
9581746405
9581752387
9581758856
9581766242
9581773139
9581781256
9581787299
9581793951
9581801093
9581808112
9581814886
9581823004
9581828619
9581835516
9581841925
9581847784
9581854010
9581861883
9581868353
9581874762
9581881964
9581888128
9581893683
9581901556
9581907843
9581914068
9581921759
9581927374
9581933905
9581940374
9581946417
9581953863
9581960272
9581967596
9581972967
9581980841
9581989386
9581996527
9582003729
9582010687
9582019110
9582023992
9582031744
9582039129
9582046392
9582053900
9582059149
9582068548
9582078497
9582085516
9582093023
9582101446
9582108709
9582120794
9582127813
9582135198
9582142034
9582153265
9582162847
9582168645
9582178167
9582183721
9582191839
9582197637
9582208440
9582216192
9582222112
9582231389
9582238103
9582249761
9582261846
9582271123
9582279424
9582285649
9582292607
9582300542
9582306462
9582315984
9582323369
9582330571
9582338384
9582344121
9582351201
9582357671
9582365849
9582373113
9582380620
9582391606
9582396428
9582409612
9582413518
9582423283
9582430119
9582436589
9582446965
9582453618
9582460026
9582466374
9582471623
9582479619
9582484624
9582492253
9582500798
9582507329
9582511235
9582517521
9582522892
9582529118
9582534550
9582540471
9582547795
9582553776
9582558842
9582564640
9582570378
9582574894
9582583378
9582590336
9582596806
9582601078
9582607426
9582614445
9582620243
9582625736
9582632145
9582639286
9582644230
9582651798
9582656193
9582662663
9582667057
9582675480
9582682499
9582687626
9582690373
9582698673
9582704350
9582710697
9582715641
9582722050
9582729069
9582734867
9582740482
9582744511
9582751285
9582755619
9582764957
9582770817
9582777408
9582783878
9582789860
9582795292
9582800785
9582806034
9582811954
9582818729
9582823246
9582828983
9582835270
9582840519
9582845462
9582850895
9582857303
9582862796
9582867313
9582872379
9582877872
9582883060
9582889530
9582895694
9582901248
9582907413
9582912113
9582917667
9582923892
9582928165
9582935672
9582941959
9582946292
9582953861
9582959415
9582964237
9582970584
9582975833
9582981509
9582988162
9582993655
9582999210
9583004886
9583010684
9583016788
9583023379
9583030399
9583036563
9583045352
9583052066
9583059085
9583065005
9583072391
9583078067
9583084231
9583091189
9583095645
9583101748
9583107608
9583113711
9583120120
9583127444
9583131839
9583139346
9583143741
9583150393
9583154849
9583162112
9583166812
9583175540
9583181216
9583186343
9583192019
9583198489
9583201419
9583210635
9583217654
9583223757
9583229800
9583234194
9583240359
9583246279
9583252322
9583258853
9583267214
9583273318
9583284304
9583291445
9583298586
9583307192
9583314761
9583322756
9583329653
9583335940
9583342287
9583348940
9583355776
9583363161
9583370180
9583375674
9583381960
9583387331
9583393557
9583399721
9583406008
9583412905
9583419069
9583423403
9583430239
9583435976
9583442934
9583447512
9583454470
9583461184
9583467714
9583474550
9583479311
9583486940
9583491396
9583499514
9583506044
9583513063
9583518679
9583525209
9583531191
9583536867
9583543337
9583549196
9583557375
9583561891
9583567934
9583573793
9583579469
9583585390
9583591554
9583598146
9583604860
9583609377
9583617738
9583623170
9583628358
9583632936
9583641725
9583647890
9583653566
9583659669
9583666933
9583673646
9583678895
9583685792
9583692506
9583699586
9583708192
9583715211
9583721376
9583728517
9583734864
9583742006
9583748719
9583757020
9583763490
9583770753
9583777040
9583782411
9583790834
9583796144
9583803285
9583812928
9583820130
9583827638
9583835694
9583842774
9583851991
9583860719
9583867982
9583878175
9583884644
9583890076
9583898805
9583904603
9583913453
9583918885
9583926697
9583935914
9583944825
9583952454
9583958558
9583965211
9583974366
9583981324
9583988404
9583995789
9584004090
9584010743
9584018555
9584024903
9584032898
9584039917
9584047547
9584053894
9584060791
9584067871
9584072754
9584080811
9584085877
9584092346
9584099854
9584106507
9584114197
9584123352
9584128235
9584136414
9584141724
9584149048
9584155579
9584162537
9584167664
9584174500
9584180786
9584186890
9584191406
9584199646
9584206299
9584210876
9584216614
9584222168
9584228455
9584232788
9584238892
9584247131
9584252197
9584256409
9584263367
9584268982
9584275818
9584278686
9584287170
9584293945
9584298584
9584304748
9584310608
9584316833
9584322571
9584328186
9584335083
9584341247
9584347046
9584352295
9584358276
9584362854
9584368957
9584373657
9584380798
9584386840
9584392028
9584397338
9584402770
9584408081
9584413207
9584419067
9584426086
9584431091
9584436767
9584441650
9584447387
9584452087
9584459106
9584465576
9584469787
9584475158
9584481689
9584486816
9584490844
9584497436
9584501830
9584509582
9584514404
9584521300
9584528075
9584534850
9584540588
9584547912
9584554687
9584560790
9584569457
9584575927
9584583434
9584588683
9584594542
9584601928
9584607238
9584612548
9584618346
9584623717
9584629393
9584636046
9584642577
9584650145
9584655761
9584660338
9584666808
9584672728
9584678954
9584686583
9584691222
9584699706
9584706603
9584712401
9584718566
9584725768
9584732359
9584739806
9584746275
9584750731
9584757933
9584762450
9584770567
9584776427
9584783202
9584787413
9584794493
9584800475
9584807005
9584811583
9584818480
9584824950
9584831297
9584837096
9584844054
9584850218
9584856200
9584862974
9584868651
9584876646
9584881163
9584888426
9584892943
9584900206
9584904722
9584912169
9584919554
9584925169
9584930235
9584936949
9584942015
9584948729
9584954283
9584961912
9584969480
9584974424
9584981321
9584987364
9584991697
9584998350
9585004515
9585011350
9585018370
9585024290
9585030760
9585038206
9585044798
9585049253
9585056211
9585063169
9585069700
9585075742
9585082090
9585088071
9585094175
9585101438
9585109006
9585116941
9585123411
9585129941
9585136655
9585144468
9585151121
9585157102
9585166196
9585171750
9585178892
9585185972
9585193052
9585199521
9585206724
9585212949
9585217527
9585225339
9585231504
9585238340
9585243772
9585250669
9585257444
9585262448
9585268796
9585274778
9585280942
9585287046
9585292966
9585300107
9585307309
9585314572
9585321469
9585328488
9585334775
9585342343
9585348630
9585356442
9585364133
9585371152
9585376706
9585383969
9585391476
9585398495
9585405576
9585413266
9585420590
9585426083
9585435971
9585443356
9585451901
9585457394
9585467709
9585475949
9585482724
9585489804
9585496457
9585502499
9585510678
9585516476
9585525814
9585532406
9585541012
9585546933
9585554745
9585562374
9585569760
9585576840
9585583248
9585591244
9585598446
9585605770
9585613888
9585619992
9585630673
9585634884
9585646481
9585650692
9585660275
9585666500
9585675594
9585681820
9585690426
9585698666
9585707272
9585716061
9585722774
9585731502
9585740169
9585746273
9585756100
9585762020
9585771725
9585775387
9585785030
9585789791
9585796505
9585801388
9585809566
9585816036
9585822933
9585829830
9585835323
9585846981
9585854183
9585861629
9585867733
9585877437
9585884395
9585891048
9585896785
9585903011
9585909481
9585917537
9585924068
9585929195
9585936336
9585943294
9585949519
9585954585
9585960872
9585969051
9585973995
9585980891
9585986873
9585992427
9586000056
9586005366
9586011775
9586017573
9586023372
9586028255
9586034419
9586041438
9586046687
9586052913
9586057246
9586063960
9586070491
9586075191
9586082332
9586088069
9586094844
9586099727
9586106563
9586114497
9586121028
9586125300
9586132197
9586138667
9586144221
9586149714
9586154414
9586163081
9586169368
9586174800
9586181330
9586187800
9586193782
9586200923
9586206477
9586213008
9586219050
9586224543
9586233271
9586238581
9586246027
9586251338
9586257441
9586262019
9586268305
9586275507
9586281977
9586287836
9586294611
9586301997
9586308527
9586314387
9586322077
9586333308
9586339777
9586347956
9586355524
9586362238
9586370295
9586378473
9586385431
9586392634
9586398371
9586406794
9586413691
9586419184
9586426813
9586432978
9586439997
9586448359
9586452936
9586461054
9586467890
9586475092
9586480219
9586487177
9586493708
9586499994
9586508844
9586515436
9586521601
9586527643
9586534601
9586540155
9586547052
9586554926
9586559564
9586567682
9586573236
9586579767
9586586298
9586594537
9586600885
9586605402
9586613946
9586619928
9586624506
9586632684
9586640863
9586646600
9586653680
9586660455
9586665338
9586673395
9586678338
9586685907
9586692865
9586699762
9586704461
9586712640
9586719598
9586725518
9586733453
9586739129
9586745111
9586751641
9586758111
9586765618
9586773492
9586779840
9586786859
9586794793
9586800592
9586810113
9586817620
9586825006
9586831902
9586839532
9586847344
9586855645
9586861321
9586869988
9586877679
9586885613
9586893182
9586901665
9586909966
9586916253
9586924493
9586933037
9586940423
9586946648
9586955498
9586964043
9586971184
9586978936
9586985344
9586992974
9587003594
9587010613
9587018486
9587025750
9587031060
9587037774
9587046196
9587054070
9587061577
9587066948
9587075432
9587082207
9587088921
9587095940
9587104912
9587111687
9587118401
9587126885
9587133598
9587139275
9587148613
9587154472
9587161736
9587167656
9587177727
9587183586
9587193047
9587199394
9587206718
9587214470
9587222160
9587230095
9587237663
9587243400
9587251640
9587259208
9587265129
9587272758
9587278190
9587286735
9587295891
9587302299
9587309013
9587317985
9587325493
9587333122
9587339836
9587348198
9587355400
9587362663
9587369316
9587376029
9587381828
9587387870
9587394584
9587401481
9587407890
9587414054
9587420036
9587426200
9587432487
9587437187
9587445060
9587449699
9587457023
9587462455
9587469108
9587475272
9587481132
9587487479
9587493583
9587501517
9587506827
9587513236
9587519034
9587526237
9587531241
9587540336
9587546622
9587551200
9587559012
9587563712
9587571036
9587575858
9587583304
9587590934
9587597770
9587605155
9587609794
9587616141
9587621024
9587627494
9587634757
9587641532
9587648368
9587654349
9587661063
9587667838
9587672782
9587679190
9587685050
9587691214
9587695975
9587702323
9587708670
9587714346
9587720084
9587725943
9587732596
9587736807
9587743460
9587747794
9587754935
9587759146
9587766226
9587771353
9587777762
9587782645
9587790274
9587795889
9587801504
9587807608
9587813589
9587819632
9587825186
9587831167
9587838064
9587843313
9587850210
9587857351
9587863211
9587870474
9587876333
9587882132
9587887747
9587893728
9587901663
9587907888
9587914358
9587920218
9587926382
9587932364
9587938528
9587945608
9587950491
9587959036
9587964712
9587971670
9587976309
9587983084
9587989065
9587995596
9588003347
9588008291
9588015249
9588021902
9588028799
9588034719
9588042104
9588048757
9588055044
9588061636
9588066152
9588074392
9588079824
9588085561
9588094167
9588100393
9588106618
9588112722
9588118825
9588125112
9588130605
9588137929
9588144704
9588150442
9588157400
9588163930
9588170827
9588178029
9588184438
9588191823
9588197011
9588204397
9588211110
9588218557
9588223684
9588232961
9588238210
9588249684
9588254933
9588261403
9588268056
