3344218916
3344224532
3344228865
3344233992
3344239790
3344245344
3344250655
3344255110
3344260481
3344266279
3344272627
3344277876
3344283430
3344288252
3344294783
3344301985
3344308211
3344313826
3344321333
3344327192
3344334028
3344341536
3344347578
3344353071
3344360640
3344368086
3344374800
3344382612
3344389326
3344396772
3344403730
3344410017
3344416426
3344424848
3344432600
3344439314
3344447492
3344453413
3344461164
3344469831
3344476972
3344482771
3344492048
3344498640
3344505659
3344512189
3344519392
3344526960
3344534833
3344540449
3344548505
3344555280
3344562787
3344570234
3344577009
3344582075
3344589460
3344596540
3344605451
3344612226
3344619489
3344627363
3344634809
3344640668
3344647870
3344654340
3344659528
3344669294
3344676984
3344685102
3344696027
3344709088
3344715009
3344723981
3344732526
3344740643
3344745465
3344755597
3344760358
3344772077
3344779828
3344785382
3344794598
3344801801
3344808026
3344815228
3344823468
3344829266
3344838361
3344843976
3344852154
3344860211
3344866742
3344874432
3344881878
3344887982
3344895672
3344900982
3344910870
3344917767
3344924054
3344930157
3344938214
3344947430
3344954754
3344962628
3344970013
3344977887
3344985089
3344993328
3344999066
3345008709
3345014385
3345021588
3345029095
3345035809
3345040936
3345048565
3345057415
3345065655
3345069927
3345078899
3345085369
3345093304
3345100628
3345106182
3345116009
3345121868
3345130108
3345137798
3345145367
3345152202
3345158123
3345165386
3345174724
3345183208
3345189373
3345194805
3345204143
3345209820
3345217876
3345222271
3345231792
3345238567
3345246868
3345254741
3345261821
3345265911
3345274456
3345282573
3345289531
3345297222
3345302410
3345310405
3345317424
3345323039
3345331035
3345340068
3345346233
3345355510
3345361369
3345369304
3345376933
3345384502
3345391338
3345399944
3345407268
3345415935
3345424846
3345432048
3345438823
3345446635
3345454265
3345461467
3345468547
3345476054
3345482219
3345487651
3345495707
3345504069
3345512065
3345519023
3345526774
3345533671
3345539714
3345545451
3345554484
3345562602
3345569926
3345576884
3345583781
3345590800
3345597636
3345604289
3345611430
3345617472
3345624064
3345629923
3345636820
3345644694
3345651591
3345658549
3345666422
3345672770
3345677958
3345685770
3345693034
3345700114
3345705546
3345714762
3345721415
3345730082
3345737223
3345744425
3345751566
3345756754
3345764139
3345771830
3345781595
3345788126
3345794657
3345799723
3345806986
3345816324
3345825296
3345832987
3345839335
3345848124
3345856424
3345863626
3345871378
3345879068
3345888651
3345894754
3345901834
3345909647
3345915933
3345921182
3345931436
3345934976
3345945657
3345952799
3345960672
3345965677
3345973734
3345977823
3345990579
3345997842
3346005228
3346011209
3346017740
3346024759
3346031473
3346039529
3346047403
3346056009
3346067117
3346075113
3346084207
3346096658
3346106302
3346114724
3346123452
3346129495
3346138589
3346145547
3346153238
3346160012
3346169107
3346177652
3346185647
3346192300
3346199807
3346207192
3346214700
3346223855
3346231179
3346238320
3346245645
3346252358
3346259622
3346267190
3346275002
3346282632
3346289468
3346297158
3346303933
3346311623
3346319802
3346327492
3346333352
3346343728
3346348366
3346359658
3346367226
3346372536
3346380044
3346385720
3346396096
3346400673
3346409890
3346416909
3346424172
3346431984
3346439370
3346447792
3346455239
3346462990
3346468544
3346477578
3346485939
3346493202
3346499184
3346508522
3346513893
3346524025
3346530007
3346539467
3346543434
3346551613
3346556679
3346568337
3346575295
3346582741
3346588600
3346594215
3346599892
3346604591
3346613014
3346616371
3346624245
3346629860
3346635109
3346639686
3346646278
3346652748
3346659401
3346665809
3346671974
3346679298
3346684120
3346692116
3346698890
3346704994
3346710487
3346717689
3346722206
3346729225
3346735878
3346742836
3346748024
3346754982
3346760170
3346767189
3346772499
3346779518
3346786537
3346791664
3346796974
3346802467
3346807960
3346813514
3346818580
3346824561
3346828590
3346834083
3346839576
3346844947
3346849586
3346854286
3346862708
3346869666
3346875587
3346881873
3346886939
3346892310
3346899451
3346904945
3346911597
3346918189
3346921973
3346929725
3346935889
3346941199
3346947364
3346951087
3346958289
3346963355
3346967689
3346975379
3346982642
3346987281
3346993567
3346997046
3347003394
3347009192
3347016089
3347020972
3347026770
3347032508
3347038123
3347042090
3347049109
3347052771
3347060096
3347066321
3347071997
3347077002
3347082068
3347086524
3347092444
3347099219
3347104163
3347110144
3347115088
3347122290
3347128577
3347133643
3347139258
3347143103
3347149207
3347157263
3347161353
3347169043
3347175635
3347180457
3347184424
3347191626
3347196875
3347203589
3347209509
3347218237
3347226233
3347231787
3347240271
3347245276
3347249731
3347255530
3347261328
3347266699
3347273108
3347280127
3347285315
3347290014
3347294897
3347300207
3347307654
3347313879
3347318518
3347323706
3347330298
3347335302
3347340979
3347348364
3347355017
3347359472
3347364843
3347371191
3347375524
3347383825
3347390844
3347394934
3347400366
3347406042
3347411779
3347416174
3347422399
3347429785
3347433080
3347440222
3347444738
3347448644
3347454626
3347459570
3347466222
3347471655
3347477026
3347481908
3347488439
3347493139
3347502294
3347508276
3347512670
3347517919
3347525304
3347529760
3347536779
3347541723
3347546606
3347552160
3347556981
3347563756
3347570714
3347575963
3347581884
3347586583
3347592138
3347598241
3347602392
3347608800
3347613866
3347620336
3347625219
3347631261
3347636388
3347642614
3347647741
3347653356
3347657994
3347664830
3347672155
3347680394
3347687108
3347692906
3347697484
3347704137
3347709813
3347713231
3347720250
3347725682
3347730565
3347736119
3347741857
3347748021
3347753575
3347757848
3347763829
3347769017
3347772740
3347779149
3347785008
3347792638
3347798009
3347804600
3347809605
3347815648
3347822240
3347830174
3347838658
3347843785
3347849766
3347855870
3347860142
3347867100
3347872166
3347878026
3347882969
3347889256
3347894078
3347900609
3347906102
3347910435
3347917088
3347920933
3347926976
3347934300
3347939854
3347945225
3347952305
3347959446
3347966770
3347971653
3347976841
3347982456
3347988926
3347994419
3348001072
3348005284
3348011753
3348017124
3348021946
3348028538
3348034886
3348039951
3348046177
3348049839
3348055088
3348061985
3348065952
3348072605
3348077488
3348084507
3348089390
3348094273
3348099216
3348104099
3348111362
3348121433
3348127842
3348134128
3348139866
3348146824
3348153293
3348158298
3348162815
3348168125
3348173801
3348179294
3348184360
3348190220
3348195957
3348200596
3348205417
3348210300
3348217746
3348222141
3348227573
3348232456
3348236545
3348243198
3348248996
3348254428
3348260166
3348265842
3348270481
3348276157
3348280979
3348289340
3348295200
3348300388
3348307895
3348313022
3348319370
3348324924
3348330722
3348335727
3348341647
3348347080
3348352390
3348359103
3348364658
3348369907
3348375583
3348383456
3348388095
3348394199
3348400790
3348407260
3348411960
3348419223
3348424472
3348431064
3348435397
3348442660
3348447543
3348455295
3348460849
3348466281
3348473056
3348479892
3348485507
3348489657
3348497043
3348501742
3348507968
3348512606
3348519076
3348524203
3348530185
3348536349
3348541720
3348547885
3348554538
3348559542
3348567050
3348572299
3348577853
3348583590
3348589633
3348595431
3348599520
3348605929
3348613986
3348619418
3348628024
3348633883
3348639559
3348644320
3348652316
3348659640
3348664767
3348671847
3348676241
3348681857
3348688021
3348693087
3348698946
3348704501
3348710055
3348715487
3348720919
3348726290
3348732027
3348740450
3348747774
3348752291
3348758517
3348763216
3348769442
3348774447
3348781038
3348787386
3348793306
3348802767
3348808321
3348815340
3348819979
3348826876
3348832979
3348838900
3348844820
3348850313
3348855928
3348861422
3348867037
3348872591
3348877962
3348883516
3348889803
3348894075
3348900789
3348906771
3348911653
3348918123
3348925264
3348929842
3348935457
3348941499
3348947054
3348953706
3348960359
3348966341
3348971285
3348977388
3348981905
3348989107
3348993684
3348999788
3349005464
3349011262
3349017793
3349023286
3349029268
3349034822
3349039400
3349045076
3349050569
3349056123
3349061799
3349067903
3349074067
3349077669
3349085908
3349092073
3349097566
3349103486
3349109163
3349114778
3349120332
3349126313
3349130464
3349137544
3349141633
3349147981
3349154756
3349161714
3349166841
3349174104
3349180574
3349188996
3349194001
3349200166
3349206086
3349211518
3349217744
3349223908
3349228913
3349234834
3349239961
3349243989
3349251618
3349256379
3349262544
3349267854
3349275239
3349280183
3349285615
3349291230
3349296784
3349302949
3349308747
3349313996
3349319428
3349325410
3349331574
3349336335
3349342316
3349347565
3349354462
3349360566
3349365815
3349372407
3349375763
3349383027
3349389008
3349394440
3349398835
3349404999
3349410309
3349415497
3349420136
3349425934
3349431733
3349437836
3349442963
3349447419
3349454499
3349458771
3349465119
3349471222
3349476593
3349482514
3349487885
3349495514
3349502472
3349506317
3349512848
3349516937
3349523529
3349529694
3349535431
3349538483
3349545624
3349551056
3349556244
3349562653
3349568085
3349574188
3349578094
3349585114
3349589264
3349595184
3349601593
3349607513
3349613617
3349619781
3349626007
3349631988
3349637482
3349643158
3349649139
3349655487
3349660187
3349666229
3349672516
3349679046
3349687103
3349691864
3349700164
3349706146
3349712433
3349719391
3349723968
3349729889
3349734161
3349741607
3349746978
3349753265
3349756439
3349764129
3349771026
3349776519
3349782134
3349787811
3349793365
3349798919
3349805267
3349811248
3349817108
3349821868
3349828399
3349833099
3349840484
3349845855
3349851348
3349857757
3349863555
3349867645
3349873809
3349878692
3349884795
3349891021
3349896819
3349902618
3349908660
3349913177
3349918487
3349924224
3349930205
3349936492
3349941497
3349948150
3349954131
3349959746
3349965239
3349971099
3349976653
3349982207
3349988189
3349993743
3349999175
3350004668
3350009917
3350015349
3350021514
3350028533
3350035552
3350038909
3350045439
3350052153
3350057646
3350061553
3350069731
3350075957
3350081633
3350087859
3350092009
3350098845
3350104765
3350110503
3350114592
3350121550
3350126128
3350132903
3350138152
3350144255
3350149626
3350155241
3350162138
3350167387
3350172820
3350177885
3350183623
3350189726
3350195952
3350201384
3350207487
3350213835
3350219878
3350225188
3350231291
3350239165
3350246489
3350255217
3350261686
3350266386
3350273466
3350279509
3350285246
3350291411
3350296843
3350302153
3350307707
3350313993
3350320036
3350324919
3350329191
3350336454
3350341581
3350347807
3350354277
3350359709
3350365385
3350371244
3350377287
3350381376
3350388883
3350393583
3350399626
3350404264
3350410978
3350415678
3350423063
3350428922
3350434538
3350439604
3350444914
3350451505
3350456388
3350462309
3350467374
3350474027
3350479093
3350484464
3350489774
3350495756
3350501798
3350506559
3350512907
3350519498
3350524991
3350530607
3350536954
3350542692
3350547574
3350553617
3350559415
3350565641
3350568937
3350576871
3350582731
3350588224
3350592984
3350598539
3350604642
3350610257
3350615995
3350621610
3350628263
3350632962
3350638822
3350643155
3350650479
3350655057
3350661161
3350667996
3350673490
3350678983
3350684415
3350689786
3350695096
3350701688
3350706693
3350713040
3350716275
3350724393
3350733548
3350741177
3350747098
3350753201
3350760770
3350767239
3350774991
3350782193
3350788724
3350794217
3350800442
3350806424
3350810818
3350818326
3350823636
3350829251
3350833890
3350840115
3350845791
3350850918
3350857510
3350861966
3350869900
3350874417
3350880520
3350886013
3350893155
3350898831
3350904263
3350908780
3350914212
3350920742
3350927151
3350933255
3350938137
3350944424
3350949673
3350955288
3350962185
3350967800
3350972927
3350978359
3350983731
3350989224
3350995938
3351000088
3351006741
3351013210
3351018459
3351023831
3351029202
3351035915
3351040249
3351047146
3351055752
3351061184
3351066616
3351072414
3351078152
3351082546
3351089687
3351094021
3351102322
3351108303
3351113796
3351119106
3351124538
3351130520
3351136074
3351142605
3351146938
3351154323
3351159511
3351165676
3351170376
3351176479
3351182583
3351188198
3351194118
3351199367
3351204860
3351210109
3351215297
3351222316
3351228786
3351234951
3351240139
3351245327
3351250820
3351257289
3351263515
3351269618
3351274379
3351280666
3351287013
3351292873
3351298854
3351304836
3351312404
3351318508
3351325649
3351331508
3351337001
3351341274
3351347804
3351352138
3351359584
3351365260
3351370448
3351376125
3351382472
3351387294
3351393520
3351399440
3351404994
3351410914
3351416286
3351421596
3351427150
3351432948
3351438624
3351445399
3351449489
3351455775
3351462245
3351467006
3351471400
3351478969
3351484645
3351490626
3351496608
3351502162
3351506251
3351512416
3351518336
3351523951
3351530299
3351535731
3351541102
3351546717
3351553309
3351557337
3351563990
3351568202
3351578883
3351584803
3351588832
3351595362
3351601100
3351606471
3351612513
3351618006
3351622401
3351628993
3351634425
3351640406
3351644434
3351650111
3351656519
3351661951
3351667017
3351672083
3351677576
3351681300
3351687647
3351691981
3351699000
3351703760
3351709925
3351715113
3351720728
3351723719
3351731653
3351737513
3351743006
3351748743
3351752772
3351758387
3351763392
3351769556
3351773646
3351780909
3351785853
3351791834
3351794825
3351801661
3351806604
3351812464
3351821314
3351826502
3351832727
3351838465
3351844202
3351850244
3351855188
3351861231
3351867029
3351873133
3351880152
3351886133
3351890222
3351897608
3351904810
3351910547
3351915491
3351920740
3351926050
3351931116
3351936426
3351941675
3351947046
3351952905
3351957788
3351961511
3351968347
3351972559
3351978601
3351985071
3351991052
3351996301
3352003198
3352008630
3352013940
3352019311
3352025964
3352031701
3352036218
3352041589
3352047632
3352052636
3352057763
3352062768
3352069299
3352074609
3352079431
3352084436
3352089319
3352094445
3352100610
3352104882
3352111596
3352116357
3352122949
3352127404
3352133081
3352137841
3352143457
3352151513
3352156091
3352162133
3352167321
3352173120
3352176904
3352183679
3352188989
3352195031
3352200158
3352205956
3352211022
3352216699
3352219811
3352226464
3352233117
3352238610
3352243859
3352248925
3352254113
3352259606
3352264489
3352268822
3352275841
3352280541
3352286340
3352290551
3352297875
3352300866
3352309777
3352315880
3352320153
3352326562
3352330773
3352339074
3352345421
3352350121
3352357628
3352365075
3352371056
3352376122
3352381127
3352386864
3352392785
3352399071
3352404564
3352409142
3352413659
3352420067
3352425255
3352430321
3352437279
3352442589
3352447716
3352452721
3352458458
3352462242
3352467980
3352474816
3352481224
3352486901
3352492027
3352497399
3352502464
3352508202
3352512169
3352519188
3352523644
3352530052
3352533958
3352540489
3352546043
3352550743
3352555138
3352562035
3352566612
3352572350
3352576561
3352582786
3352587303
3352593040
3352600792
3352604881
3352610252
3352615318
3352620933
3352626549
3352631920
3352636558
3352643760
3352648338
3352654808
3352659813
3352666099
3352671104
3352676109
3352682945
3352688438
3352693870
3352698936
3352703819
3352708885
3352714622
3352718956
3352726219
3352731224
3352736839
3352741477
3352747154
3352752586
3352756370
3352763999
3352769615
3352774864
3352780052
3352785545
3352789573
3352795799
3352800315
3352806724
3352811302
3352818809
3352823325
3352829246
3352834312
3352840110
3352847678
3352853660
3352860496
3352865134
3352872642
3352878501
3352884666
3352891013
3352896445
3352901816
3352905662
3352912070
3352917686
3352922080
3352927573
3352933921
3352941123
3352946738
3352952781
3352958884
3352965110
3352968345
3352976951
3352980613
3352987876
3352993369
3352998984
3353004416
3353009970
3353016013
3353019736
3353026145
3353030478
3353036643
3353041342
3353048300
3353054587
3353059897
3353064414
3353069419
3353074423
3353079550
3353085349
3353089499
3353096518
3353101340
3353107749
3353112814
3353118552
3353121542
3353128806
3353134909
3353140524
3353146323
3353151755
3353157126
3353161093
3353167563
3353171652
3353179526
3353185446
3353191183
3353194418
3353200583
3353205527
3353211325
3353218344
3353224020
3353230002
3353233969
3353240683
3353244528
3353250631
3353254904
3353263510
3353266928
3353273459
3353279318
3353284323
3353287985
3353293722
3353301046
3353305502
3353312277
3353318197
3353323141
3353326925
3353333761
3353338217
3353344137
3353351034
3353356588
3353364096
3353370321
3353379049
3353382223
3353390890
3353397482
3353403707
3353409139
3353414388
3353420370
3353425375
3353433004
3353436544
3353442648
3353447469
3353453268
3353458700
3353464681
3353471029
3353476583
3353481954
3353485860
3353492147
3353497823
3353502401
3353508199
3353514425
3353519613
3353525289
3353528280
3353534505
3353539937
3353545736
3353550985
3353556722
3353561910
3353566915
3353572652
3353577657
3353582906
3353589498
3353595723
3353598592
3353605855
3353610677
3353616292
3353619283
3353627706
3353633443
3353638936
3353644429
3353649434
3353655049
3353660176
3353665425
3353672139
3353678304
3353681172
3353688374
3353693074
3353699361
3353704671
3353710469
3353716145
3353721639
3353727010
3353732198
3353737569
3353742696
3353748311
3353752522
3353758992
3353765157
3353770955
3353775471
3353781209
3353786641
3353791096
3353798176
3353804768
3353810200
3353815877
3353822468
3353825520
3353832478
3353838154
3353844624
3353849934
3353855610
3353861104
3353865498
3353872029
3353878926
3353884846
3353891438
3353896809
3353904560
3353910298
3353916951
3353922078
3353928120
3353933491
3353939045
3353944294
3353948017
3353954670
3353959431
3353965656
3353970295
3353975971
3353981465
3353987263
3353992756
3353998127
3354004658
3354008747
3354013935
3354019001
3354024250
3354029499
3354034809
3354040669
3354045856
3354050556
3354056599
3354061970
3354067829
3354073261
3354078571
3354085163
3354090473
3354095722
3354101093
3354106708
3354112385
3354118671
3354124714
3354130268
3354135456
3354140461
3354145588
3354150654
3354156147
3354160358
3354169147
3354173908
3354179279
3354184101
3354191913
3354197528
3354203388
3354210590
3354216877
3354221454
3354228778
3354237018
3354242755
3354248737
3354256183
3354261310
3354266681
3354273273
3354277851
3354282184
3354288959
3354295245
3354300800
3354306171
3354311237
3354316486
3354321552
3354326312
3354332538
3354338153
3354343036
3354349506
3354354755
3354359149
3354363300
3354369464
3354377215
3354382465
3354387714
3354392963
3354397662
3354403644
3354411334
3354415790
3354422503
3354427875
3354434894
3354441058
3354446185
3354450580
3354457232
3354464068
3354468768
3354474383
3354478717
3354484454
3354489215
3354495562
3354501178
3354506793
3354512042
3354517169
3354522906
3354528094
3354532855
3354538592
3354544635
3354549151
3354556292
3354560565
3354566180
3354570391
3354576434
3354582110
3354589190
3354594439
3354600115
3354604876
3354611163
3354616229
3354621783
3354629656
3354633746
3354639361
3354645464
3354650042
3354655962
3354660601
3354666155
3354671770
3354678240
3354683245
3354689532
3354694048
3354700396
3354706682
3354712603
3354718096
3354723223
3354728106
3354733660
3354740862
3354745623
3354752337
3354755999
3354762713
3354765703
3354772844
3354777849
3354782915
3354790361
3354794512
3354800554
3354806047
3354810564
3354816118
3354821489
3354826372
3354833635
3354838701
3354844377
3354849565
3354854814
3354860796
3354866106
3354871782
3354876177
3354882341
3354887895
3354892778
3354898454
3354903642
3354908281
3354914812
3354922502
3354928117
3354932695
3354939409
3354946855
3354952287
3354957902
3354962175
3354968278
3354972185
3354979143
3354983293
3354989152
3354995500
3355001420
3355006975
3355012224
3355016923
3355022233
3355028947
3355035661
3355047014
3355051774
3355057451
3355063676
3355068925
3355074418
3355078508
3355086198
3355091081
3355097551
3355100541
3355108171
3355111711
3355119340
3355126664
3355130876
3355137345
3355141252
3355147050
3355152726
3355158463
3355163896
3355169511
3355175309
3355180436
3355187394
3355191728
3355197282
3355204972
3355209977
3355216569
3355220536
3355227555
3355232255
3355240006
3355244767
3355252030
3355258073
3355263139
3355269913
3355274125
3355280350
3355287247
3355293351
3355297501
3355303849
3355307938
3355312943
3355318741
3355324296
3355330826
3355335587
3355341507
3355345963
3355350907
3355356888
3355361405
3355366044
3355373063
3355378678
3355384598
3355391190
3355397477
3355403214
3355409439
3355415299
3355421219
3355426529
3355431168
3355436905
3355442826
3355446976
3355454910
3355460526
3355468521
3355474747
3355480789
3355488297
3355494766
3355504227
3355510758
3355516373
3355522537
3355527176
3355533035
3355539810
3355544754
3355549942
3355555069
3355559891
3355564957
3355570389
3355576675
3355581558
3355587173
3355592911
3355597366
3355603042
3355608352
3355614151
3355617996
3355623550
3355629287
3355634536
3355639541
3355646072
3355650100
3355655533
3355662857
3355667434
3355672805
3355677017
3355682815
3355687149
3355693252
3355699905
3355705642
3355709915
3355715652
3355721450
3355726638
3355731094
3355738967
3355743972
3355748123
3355755630
3355761978
3355768447
3355775955
3355782241
3355788223
3355793044
3355799087
3355804702
3355811660
3355813308
3355822646
3355829604
3355833755
3355839980
3355844985
3355851272
3355856155
3355860732
3355865676
3355872695
3355878921
3355884048
3355889297
3355895461
3355901137
3355905349
3355912490
3355916640
3355923476
3355927993
3355934585
3355937697
3355944045
3355950332
3355958022
3355963332
3355969008
3355975112
3355980178
3355986892
3355994521
3355999892
3356006057
3356011794
3356017409
3356021682
3356027358
3356033278
3356038771
3356044081
3356049208
3356054457
3356059462
3356064345
3356069777
3356075942
3356080336
3356087599
3356092970
3356099135
3356103285
3356109877
3356115553
3356121046
3356126051
3356132338
3356136732
3356141676
3356146864
3356152418
3356158644
3356165175
3356169569
3356173781
3356180495
3356186415
3356191664
3356197890
3356203322
3356208998
3356212843
3356218702
3356224318
3356228956
3356235853
3356242262
3356246901
3356252760
3356255934
3356264418
3356268995
3356274427
3356280409
3356287367
3356292006
3356297255
3356302443
3356308058
3356312879
3356319410
3356325331
3356331983
3356338758
3356344251
3356350172
3356355787
3356360426
3356367628
3356373914
3356379469
3356384840
3356390455
3356396436
3356402906
3356409742
3356416151
3356422804
3356426832
3356432386
3356437818
3356443433
3356450452
3356454603
3356460035
3356465101
3356471815
3356479383
3356485181
3356491956
3356497693
3356503126
3356509717
3356515882
3356519971
3356526136
3356534131
3356538221
3356544996
3356550123
3356555799
3356561353
3356566602
3356570997
3356577771
3356582959
3356588697
3356593824
3356598889
3356604077
3356609204
3356615796
3356621472
3356627271
3356631360
3356638013
3356641858
3356647595
3356651929
3356659497
3356665174
3356669812
3356674878
3356680798
3356686231
3356691419
3356698743
3356703076
3356709241
3356712964
3356719373
3356723096
3356729504
3356734875
3356742017
3356746777
3356752576
3356757764
3356762891
3356768445
3356773938
3356780224
3356784558
3356790661
3356796155
3356801159
3356805493
3356812268
3356818005
3356823742
3356831555
3356837353
3356842907
3356847363
3356853405
3356859448
3356864819
3356870800
3356874768
3356881176
3356885754
3356891735
3356896130
3356904675
3356909802
3356915478
3356919506
3356925305
3356931103
3356936718
3356942333
3356948132
3356952892
3356958508
3356963940
3356968823
3356974316
3356979870
3356986645
3356992992
3357000561
3357006115
3357011791
3357018261
3357025097
3357030956
3357037731
3357042614
3357048046
3357053539
3357058544
3357062878
3357070385
3357076183
3357080700
3357085338
3357091076
3357095959
3357101635
3357108288
3357113903
3357118480
3357123607
3357129101
3357134289
3357140026
3357144054
3357153392
3357157543
3357163829
3357168895
3357173961
3357179638
3357185009
3357191539
3357196544
3357202587
3357208019
3357212902
3357216625
3357222789
3357227428
3357234874
3357238231
3357244457
3357249278
3357255016
3357259960
3357266490
3357271922
3357277660
3357283092
3357286998
3357293468
3357299083
3357304576
3357309093
3357315562
3357321300
3357327403
3357333141
3357338206
3357342662
3357349620
3357356212
3357360362
3357367076
3357371471
3357376536
3357380321
3357387095
3357394176
3357399608
3357405284
3357411021
3357417796
3357422557
3357430125
3357435496
3357441478
3357448069
3357453135
3357460276
3357464488
3357469737
3357476695
3357482615
3357486949
3357494334
3357500376
3357506724
3357512828
3357518016
3357525950
3357532603
3357537852
3357544200
3357549693
3357555003
3357560130
3357567332
3357573191
3357578379
3357583750
3357588938
3357593272
3357598765
3357605235
3357609507
3357615977
3357619944
3357626414
3357630381
3357637156
3357643442
3357649790
3357656565
3357661936
3357668223
3357672312
3357680308
3357686045
3357691538
3357697458
3357703013
3357709849
3357713999
3357720286
3357726145
3357732432
3357735300
3357742807
3357747019
3357753855
3357757639
3357763437
3357770334
3357774424
3357780649
3357785959
3357791330
3357795237
3357800913
3357806894
3357812937
3357818857
3357824106
3357829355
3357834665
3357840036
3357846201
3357853098
3357857309
3357863046
3357868540
3357873117
3357878610
3357884042
3357888742
3357895944
3357901498
3357906564
3357911203
3357917612
3357922006
3357927316
3357934396
3357939157
3357945627
3357952463
3357959970
3357965402
3357973276
3357979867
3357986032
3357990610
3357996042
3358000863
3358007089
3358011361
3358015939
3358024362
3358029611
3358035043
3358042428
3358046701
3358053903
3358062814
3358068124
3358074044
3358078256
3358085336
3358091134
3358097116
3358102426
3358107736
3358114083
3358118356
3358124337
3358128488
3358134530
3358142648
3358146798
3358151986
3358158334
3358162423
3358167489
3358173104
3358178597
3358184518
3358190438
3358194894
3358198739
3358205697
3358209969
3358215585
3358222787
3358228585
3358233956
3358240548
3358248360
3358253060
3358259713
3358265084
3358272225
3358278023
3358283761
3358289376
3358293587
3358299325
3358307137
3358312081
3358318612
3358322274
3358329293
3358333382
3358339241
3358346810
3358352547
3358357735
3358363228
3358368294
3358374703
3358379769
3358386299
3358392891
3358397896
3358402352
3358406563
3358412545
3358416878
3358424263
3358428292
3358434578
3358440376
3358445442
3358449837
3358454903
3358461006
3358465218
3358473152
3358477730
3358483345
3358486458
3358493782
3358498726
3358504524
3358511177
3358516914
3358522774
3358527840
3358533089
3358538399
3358544319
3358549263
3358557991
3358561958
3358569771
3358576179
3358581306
3358585457
3358591377
3358598457
3358604378
3358609382
3358614876
3358619819
3358623604
3358630134
3358634773
3358641426
3358646980
3358654182
3358659736
3358665718
3358672737
3358678230
3358683235
3358687812
3358695625
3358699531
3358705513
3358711067
3358716743
3358723823
3358727912
3358734321
3358738227
3358744392
3358750373
3358754951
3358759406
3358767158
3358772834
3358777900
3358783271
3358788398
3358793220
3358799140
3358804939
3358811042
3358817023
3358822272
3358828559
3358833076
3358838752
3358845283
3358851020
3358856574
3358861823
3358866767
3358872077
3358878364
3358884894
3358890571
3358895453
3358901435
3358905829
3358911811
3358917121
3358923591
3358930610
3358936225
3358941169
3358946296
3358951911
3358955756
3358962348
3358969794
3358975714
3358979010
3358986396
3358990058
3358995856
3359001349
3359006964
3359013068
3359018683
3359024787
3359028754
3359035285
3359039679
3359045722
3359050665
3359057074
3359062628
3359070868
3359077521
3359082404
3359090033
3359097296
3359102728
3359108038
3359115240
3359120489
3359125738
3359132086
3359136603
3359143072
3359148260
3359154852
3359160101
3359165289
3359169867
3359175421
3359182684
3359187567
3359193121
3359197516
3359203863
3359208868
3359214544
3359220404
3359226080
3359230658
3359235846
3359241400
3359247076
3359252752
3359259649
3359265875
3359271490
3359276068
3359280218
3359286322
3359290777
3359297430
3359303411
3359308538
3359314215
3359319219
3359324163
3359329168
3359334295
3359339605
3359346685
3359350836
3359356878
3359362371
3359368292
3359373724
3359378240
3359383794
3359389776
3359395940
3359401250
3359406438
3359411443
3359417730
3359421941
3359427801
3359433416
3359438299
3359443975
3359449407
3359456304
3359463750
3359472784
3359478643
3359484014
3359489080
3359494329
3359499761
3359504827
3359509649
3359516240
3359519353
3359526983
3359533147
3359538274
3359542302
3359548101
3359555181
3359559453
3359565496
3359570745
3359576665
3359580449
3359587102
3359591436
3359602056
3359609380
3359614324
3359621953
3359627751
3359634709
3359641301
3359646062
3359653020
3359659795
3359665044
3359671025
3359675847
3359682927
3359687383
3359692998
3359698003
3359704594
3359711369
3359717229
3359722905
3359728581
3359733586
3359740178
3359745366
3359752080
3359757756
3359765385
3359771550
3359777104
3359783574
3359787541
3359794743
3359801335
3359807194
3359813359
3359819767
3359825078
3359830510
3359835209
3359842961
3359847783
3359852848
3359858647
3359865666
3359870854
3359877690
3359881840
3359888310
3359894291
3359900151
3359906498
3359912846
3359918766
3359924320
3359930241
3359935368
3359940678
3359948063
3359953068
3359957096
3359964543
3359970158
3359975651
3359981327
3359988041
3359992558
3359999210
3360004520
3360009892
3360015324
3360021183
3360027042
3360032535
3360039371
3360045902
3360051823
3360058048
3360062626
3360069767
3360073307
3360082645
3360089298
3360094120
3360101200
3360106327
3360114994
3360119999
3360125980
3360131962
3360137699
3360142643
3360149479
3360156253
3360164066
3360171146
3360179325
3360186832
3360194950
3360201908
3360209537
3360216129
3360223819
3360229923
3360238346
3360245487
3360253421
3360260440
3360268802
3360276309
3360283450
3360291568
3360298709
3360306339
3360315128
3360322269
3360329959
3360338992
3360346500
3360353946
3360362186
3360369510
3360376651
3360382022
3360388125
3360392642
3360398990
3360404788
3360410952
3360416385
3360422427
3360428286
3360434329
3360439517
3360445193
3360451297
3360458682
3360464724
3360470462
3360476870
3360481753
3360487063
3360494021
3360498538
3360504824
3360510317
3360516177
3360522097
3360527896
3360532534
3360539431
3360544680
3360550723
3360555972
3360561587
3360568057
3360573672
3360579287
3360584841
3360590456
3360596682
3360602297
3360606814
3360613284
3360617922
3360625491
3360629397
3360637148
3360640383
3360649111
3360653933
3360659609
3360666628
3360672426
3360681582
3360686342
3360693422
3360698855
3360705446
3360709780
3360717409
3360723818
3360727846
3360734926
3360739016
3360746218
3360750856
3360756472
3360763613
3360768434
3360773012
3360779665
3360784853
3360791628
3360797670
3360803285
3360809755
3360815187
3360820497
3360825990
3360831545
3360837099
3360842714
3360848451
3360854494
3360860353
3360865541
3360871645
3360876589
3360880861
3360888612
3360893556
3360899538
3360904909
3360911195
3360916750
3360922304
3360929384
3360934083
3360941713
3360946352
3360952394
3360957887
3360963197
3360969362
3360975587
3360983034
3360989869
3360994081
3361000612
3361004762
3361012758
3361017762
3361024476
3361029359
3361035402
3361040651
3361046876
3361052308
3361057679
3361064637
3361070619
3361075929
3361082643
3361087220
3361091859
3361097901
3361105714
3361112733
3361117860
3361123841
3361129334
3361133912
3361139771
3361148683
3361154420
3361160218
3361164491
3361171571
3361176820
3361183106
3361189454
3361195252
3361202515
3361209168
3361214112
3361221009
3361226868
3361231873
3361241517
3361247498
3361252991
3361259278
3361264710
3361269227
3361274781
3361280945
3361286255
3361291993
3361296143
3361303650
3361308167
3361313965
3361320984
3361326905
3361332276
3361338013
3361344300
3361349854
3361354370
3361361267
3361365723
3361371033
3361377320
3361383728
3361388550
3361392639
3361400269
3361405640
3361411743
3361417176
3361423706
3361429260
3361434754
3361439026
3361445374
3361453247
3361457642
3361464539
3361468506
3361475647
3361480103
3361485657
3361494446
3361500183
3361505798
3361511658
3361516785
3361523987
3361529053
3361536194
3361541809
3361548645
3361552795
3361560486
3361564575
3361572143
3361579407
3361584778
3361589294
3361595459
3361601379
3361606811
3361611816
3361617370
3361625061
3361629455
3361634643
3361640197
3361645752
3361649902
3361655456
3361662414
3361667114
3361671936
3361677734
3361684326
3361690002
3361696472
3361703369
3361709594
3361714538
3361719665
3361725097
3361730102
3361737060
3361743835
3361750732
3361760009
3361766418
3361774535
3361779723
3361786742
3361792785
3361797485
3361805297
3361811156
3361816589
3361823058
3361827331
3361834289
3361838866
3361845336
3361851012
3361857238
3361860473
3361868590
3361872558
3361879882
3361885192
3361890807
3361896850
3361902343
3361907958
3361914672
3361919371
3361925292
3361931578
3361936278
3361941893
3361948058
3361954467
3361960143
3361966307
3361970763
3361976805
3361982299
3361989073
3361993956
3361999694
3362005309
3362010802
3362016783
3362022276
3362028197
3362034117
3362039183
3362043395
3362052123
3362057005
3362063170
3362069212
3362074645
3362080016
3362086302
3362093016
3362098448
3362104002
3362109984
3362115721
3362119871
3362127623
3362133421
3362139586
3362145018
3362150511
3362156981
3362162657
3362168638
3362172911
3362179808
3362184080
3362191466
3362196348
3362203123
3362208128
3362214354
3362221006
3362226683
3362232786
3362239378
3362243956
3362249083
3362255003
3362262510
3362268064
3362273436
3362279966
3362286009
3362292234
3362299314
3362303953
3362313780
3362319700
3362324400
3362330259
3362336302
3362340818
3362347044
3362353147
3362358701
3362364683
3362370359
3362375608
3362381040
3362386900
3362393369
3362399534
3362404172
3362410642
3362415220
3362421140
3362426084
3362434324
3362440916
3362446287
3362450742
3362458005
3362463499
3362468992
3362474546
3362480588
3362485959
3362492002
3362497007
3362501218
3362509031
3362514280
3362520444
3362526120
3362531614
3362537595
3362543210
3362550351
3362554563
3362561582
3362567624
3362573789
3362579099
3362584409
3362589414
3362595273
3362600644
3362606381
3362613889
3362619931
3362625424
3362628476
3362636472
3362641843
3362647458
3362653745
3362658139
3362664670
3362669125
3362675656
3362681332
3362688718
3362695370
3362699460
3362706662
3362711911
3362717831
3362721554
3362727475
3362734738
3362739194
3362745480
3362749386
3362757016
3362760129
3362768185
3362774655
3362780087
3362785702
3362789670
3362795590
3362798825
3362804318
3362809567
3362815976
3362821286
3362825802
3362831540
3362835141
3362840084
3362846249
3362850399
3362852719
3362858822
3362863644
3362867855
3362873532
3362878720
3362883724
3362888363
3362892758
3362897457
3362901730
3362906185
3362910336
3362914791
3362919430
3362923702
3362926998
3362931637
3362935116
3362939266
3362943295
3362949093
3362953365
3362957943
3362962521
3362966976
3362971554
3362976131
3362980343
3362985104
3362989681
3362993160
3362998165
3363003719
3363011654
3363015438
3363022945
3363026974
3363031917
3363034298
3363040829
3363043514
3363049618
3363053097
3363060726
3363065609
3363069210
3363074215
3363078121
3363082577
3363087581
3363094234
3363096676
3363102474
3363107357
3363111507
3363115413
3363120601
3363127193
3363130733
3363136287
3363139339
3363144466
3363147640
3363153194
3363157039
3363162838
3363167293
3363172115
3363176082
3363179988
3363184566
3363188472
3363194515
3363198970
3363202999
3363207210
3363212093
3363217342
3363222225
3363227229
3363231990
3363239253
3363244441
3363249996
3363255245
3363259883
3363267268
3363271785
3363276851
3363281490
3363286922
3363291682
3363296321
3363300532
3363304378
3363309322
3363313838
3363318538
3363321773
3363326228
3363330684
3363336421
3363338985
3363344295
3363348811
3363353633
3363358211
3363361934
3363367671
3363373958
3363377315
3363382503
3363387080
3363393001
3363397944
3363402095
3363407527
3363409907
3363415767
3363420894
3363426387
3363431453
3363436580
3363441279
3363445735
3363450984
3363455317
3363462641
3363466670
3363472285
3363476435
3363481684
3363488154
3363491450
3363498713
3363503047
3363509089
3363514094
3363520136
3363525813
3363529719
3363537653
3363542841
3363547968
3363550593
3363556941
3363562373
3363568232
3363573054
3363577998
3363582453
3363586787
3363591730
3363597224
3363602961
3363607966
3363613764
3363617243
3363623896
3363627680
3363633967
3363639460
3363646601
3363651850
3363656489
3363663325
3363666926
3363673334
3363681025
3363686335
3363693171
3363698725
3363706965
3363712458
3363716852
3363722040
3363727411
3363731684
3363737238
3363742975
3363746942
3363753290
3363758356
3363766107
3363773432
3363778986
3363784357
3363788568
3363794855
3363800714
3363806207
3363810968
3363817072
3363822321
3363826654
3363829706
3363838556
3363844721
3363850824
3363856256
3363861932
3363866937
3363872186
3363877191
3363883356
3363890070
3363894403
3363900873
3363908075
3363913446
3363919366
3363924188
3363930475
3363941339
3363947626
3363953668
3363959772
3363965509
3363970697
3363975274
3363981561
3363986688
3363993890
3364000482
3364004937
3364010675
3364015374
3364019708
3364027093
3364032830
3364037225
3364043084
3364048028
3364052117
3364057000
3364062371
3364068536
3364074090
3364079034
3364083428
3364086846
3364093804
3364096612
3364104302
3364107415
3364114984
3364119439
3364125665
3364129571
3364136224
3364140435
3364144769
3364152154
3364158257
3364162835
3364170525
3364175042
3364180413
3364184502
3364190118
3364194268
3364200799
3364207024
3364212701
3364217644
3364224419
3364231072
3364236870
3364242058
3364250054
3364256463
3364262566
3364266594
3364271843
3364277154
3364282158
3364286126
3364292778
3364298455
3364303277
3364307366
3364312432
3364317498
3364320855
3364326714
3364334465
3364340081
3364343804
3364348259
3364352776
3364358879
3364361382
3364368096
3364371941
3364379204
3364383538
3364389092
3364393425
3364397942
3364403557
3364408318
3364413445
3364422234
3364428337
3364433098
3364440544
3364444084
3364449394
3364454216
3364458611
3364465141
3364470451
3364475700
3364483025
3364489738
3364495476
3364502251
3364508232
3364515617
3364521355
3364527275
3364532829
3364539116
3364546074
3364550163
3364558159
3364566215
3364572624
3364576713
3364583061
3364588005
3364594963
3364598320
3364605034
3364608635
3364616142
3364621879
3364627678
3364632804
3364637443
3364643547
3364647941
3364652519
3364660209
3364667533
3364673698
3364678276
3364684379
3364688468
3364693839
3364698661
3364704521
3364711479
3364717216
3364721488
3364726676
3364732414
3364736625
3364742057
3364746818
3364753898
3364759208
3364765495
3364771476
3364776603
3364782157
3364787223
3364791557
3364799247
3364807304
3364813102
3364819877
3364827079
3364831779
3364838004
3364842826
3364849418
3364853690
3364859122
3364864188
3364869925
3364873710
3364878470
3364884452
3364890616
3364896415
3364901053
3364906302
3364908011
3364915458
3364919120
3364925223
3364931876
3364936515
3364939688
3364947135
3364950858
3364957206
3364961905
3364966727
3364975455
3364980826
3364985953
3364993704
3364999198
3365004813
3365009329
3365016470
3365022696
3365028250
3365034537
3365041312
3365047965
3365054007
3365058463
3365064322
3365069205
3365074271
3365080496
3365086172
3365090384
3365094900
3365101187
3365105215
3365110464
3365116019
3365122549
3365128470
3365132803
3365139395
3365144766
3365148916
3365154471
3365159292
3365167776
3365174246
3365180105
3365184805
3365188345
3365195669
3365198538
3365204824
3365210623
3365218863
3365224051
3365230581
3365235159
3365241568
3365246084
3365250235
3365256582
3365261892
3365268972
3365274710
3365279531
3365283010
3365290518
3365293386
3365300161
3365304983
3365311880
3365316580
3365323416
3365328115
3365334463
3365338735
3365344289
3365350271
3365355215
3365361318
3365365408
3365372732
3365377248
3365384695
3365390615
3365397024
3365405080
3365412466
3365419179
3365424306
3365429067
3365434438
3365438466
3365444021
3365448964
3365455068
3365459218
3365465383
3365469228
3365474782
3365480031
3365484487
3365490041
3365495290
3365501027
3365505422
3365510610
3365514455
3365520192
3365525319
3365529409
3365535268
3365540883
3365546498
3365551442
3365556325
3365561513
3365565785
3365571279
3365577382
3365582753
3365589040
3365594045
3365598622
3365603810
3365610158
3365613698
3365620107
3365626576
3365631581
3365638234
3365647572
3365654836
3365667043
3365674611
3365687672
3365695729
3365701466
3365706227
3365712269
3365716481
3365721547
3365725880
3365733632
3365738331
3365745839
3365751454
3365755910
3365762684
3365766896
3365771779
3365779286
3365783803
3365791066
3365796681
3365801503
3365806874
3365811512
3365817006
3365821949
3365825245
3365832936
3365836293
3365843067
3365849110
3365853321
3365857472
3365863575
3365868275
3365874867
3365879200
3365884999
3365889149
3365895863
3365901356
3365906056
3365909840
3365915699
3365922108
3365927296
3365932972
3365937122
3365941578
3365944264
3365950855
3365957142
3365965015
3365971424
3365976551
3365980274
3365991688
3365995899
3366002674
3366006397
3366013416
3366017139
3366024097
3366029835
3366034900
3366039112
3366045337
3366052540
3366058582
3366063892
3366067676
3366072864
3366078235
3366082569
3366086963
3366092762
3366098377
3366102893
3366107349
3366112232
3366116748
3366120716
3366127185
3366133594
3366139148
3366143848
3366150440
3366155078
3366162097
3366166309
3366171985
3366176441
3366182056
3366188953
3366194019
3366198657
3366201953
3366209400
3366212146
3366218311
3366223316
3366231006
3366236377
3366243884
3366247974
3366253284
3366258960
3366263171
3366269336
3366276599
3366282764
3366288196
3366293140
3366296924
3366304431
3366309497
3366314502
3366317859
3366325610
3366331409
3366338428
3366343371
3366348193
3366354419
3366358813
3366365100
3366370410
3366374804
3366381518
3366386218
3366391284
3366395678
3366398974
3366406360
3366412646
3366418689
3366423449
3366428210
3366433642
3366438403
3366443042
3366448352
3366453479
3366461413
3366465441
3366470996
3366477282
3366481738
3366487292
3366492541
3366496996
3366502123
3366509570
3366512866
3366520068
3366523974
3366531970
3366535387
3366542895
3366546984
3366554980
3366561694
3366567187
3366571337
3366576403
3366581652
3366587267
3366592394
3366598009
3366603014
3366607958
3366612841
3366616625
3366620775
3366626757
3366631396
3366637865
3366642260
3366648546
3366652880
3366657824
3366662707
3366669359
3366673266
3366681017
3366686388
3366692858
3366697252
3366702501
3366708178
3366712938
3366717150
3366721422
3366730638
3366736620
3366740770
3366744127
3366752184
3366757494
3366762682
3366769945
3366775133
3366779650
3366786241
3366793077
3366798204
3366803087
3366808275
3366813219
3366818773
3366825487
3366830736
3366835497
3366840746
3366846544
3366850694
3366857713
3366864244
3366871324
3366876878
3366881578
3366886034
3366894517
3366899583
3366904954
3366909898
3366915941
3366923814
3366928697
3366934801
3366940172
3366943956
3366947130
3366953416
3366962571
3366968309
3366971910
3366979051
3366981920
3366989610
3366994493
3366999192
3367005296
3367013108
3367017808
3367024156
3367030198
3367035874
3367040635
3367046617
3367051316
3367055589
3367062364
3367068040
3367072862
3367077806
3367083238
3367087510
3367093247
3367098008
3367107896
3367113755
3367120347
3367125962
3367132859
3367137864
3367142014
3367149827
3367154404
3367160447
3367165513
3367171616
3367176438
3367181626
3367185715
3367191209
3367199387
3367204209
3367210129
3367214036
3367219407
3367224717
3367226548
3367233872
3367240037
3367244614
3367248154
3367254868
3367260300
3367266709
3367269455
3367275864
3367284409
3367290635
3367296189
3367302048
3367306199
3367311814
3367316147
3367320847
3367326645
3367334336
3367340683
3367342636
3367350693
3367354599
3367360886
3367363632
3367370041
3367374619
3367382187
3367388352
3367393662
3367397324
3367404282
3367408737
3367413803
3367420090
3367425766
3367431137
3367434921
3367441940
3367446457
3367452194
3367457016
3367461472
3367465134
3367473618
3367482346
3367488327
3367494064
3367499191
3367505600
3367512802
3367517807
3367522201
3367529709
3367534591
3367540512
3367545456
3367551010
3367555526
3367562790
3367568283
3367573410
3367577804
3367583236
3367588974
3367594467
3367598617
3367607284
3367613632
3367618576
3367622787
3367627975
3367632675
3367637191
3367645370
3367651412
3367657089
3367660507
3367667648
3367674240
3367680282
3367687423
3367692306
3367699813
3367705245
3367711959
3367715377
3367722396
3367728500
3367734786
3367739364
3367745834
3367751083
3367755355
3367761764
3367765853
3367772079
3367776778
3367783126
3367786910
3367793502
3367798141
3367803023
3367807357
3367813766
3367821334
3367828048
3367830916
3367838485
3367844954
3367849959
3367855208
3367860152
3367866195
3367872115
3367875716
3367882491
3367886824
3367893355
3367899398
3367906050
3367913985
3367919600
3367925521
3367931136
3367936690
3367942794
3367947737
3367957198
3367963240
3367967208
3367974593
3367978377
3367985152
3367992232
3367999617
3368005965
3368011519
3368017684
3368025740
3368033675
3368039839
3368045882
3368051802
3368057478
3368061079
3368067427
3368074080
3368079207
3368085860
3368093062
3368098311
3368104475
3368110518
3368112898
3368121992
3368130781
3368134688
3368140608
3368145247
3368152388
3368156843
3368162825
3368168135
3368175276
3368178816
3368185774
3368191877
3368197798
3368202436
3368209822
3368215742
3368225325
3368230757
3368236738
3368244917
3368251020
3368255476
3368262434
3368267805
3368273237
3368277448
3368283430
3368289533
3368293806
3368299116
3368306745
3368311994
3368318586
3368323835
3368330854
3368333784
3368340925
3368346113
3368351911
3368357709
3368363142
3368367109
3368374189
3368379316
3368386274
3368391645
3368398298
3368402875
3368409406
3368415876
3368420698
3368428022
3368431440
3368440412
3368446149
3368452802
3368458417
3368465680
3368473066
3368476972
3368485700
3368489423
3368499433
3368505414
3368513227
3368519696
3368527936
3368530561
3368546857
3368560346
3368588727
3368601239
3368613934
3368623822
3368629865
3368637860
3368644940
3368652814
3368658673
3368665875
3368672101
3368680707
3368686749
3368694134
3368703534
3368710919
3368717206
3368725384
3368732220
3368738019
3368744549
3368749493
3368758160
3368764019
3368770733
3368778363
3368786114
3368793194
3368799969
3368806805
3368815350
3368823468
3368829754
3368836651
3368844464
3368852276
3368859478
3368865887
3368875591
3368880779
3368888653
3368895733
3368904949
3368914837
3368923748
3368929607
3368940899
3368948406
3368956158
3368963909
3368969952
3368977886
3368984295
3368992657
3368996319
3369001751
3369007793
3369013897
3369018108
3369023357
3369028057
3369035381
3369039959
3369046428
3369051372
3369057476
3369061809
3369066631
3369073589
3369079570
3369084392
3369088848
3369094829
3369099712
3369103862
3369109478
3369116069
3369121929
3369126018
3369132244
3369138042
3369143535
3369148845
3369156169
3369163494
3369169719
3369174663
3369180156
3369185771
3369192607
3369195842
3369203105
3369209148
3369216655
3369221477
3369227214
3369231853
3369238384
3369243205
3369250163
3369254985
3369260478
3369269145
3369272807
3369280131
3369283244
3369290813
3369295268
3369301494
3369308391
3369314189
3369319072
3369324931
3369331157
3369336528
3369341350
3369348369
3369352824
3369359416
3369364360
3369370402
3369375773
3369380290
3369392314
3369398967
3369404338
3369412944
3369419902
3369424296
3369429362
3369434123
3369439555
3369444255
3369450541
3369455546
3369462870
3369467509
3369475627
3369480570
3369486308
3369491435
3369499430
3369506388
3369514506
3369523051
3369527873
3369535319
3369540263
3369545267
3369553080
3369559428
3369563700
3369569132
3369574503
3369579447
3369583414
3369589213
3369593729
3369600687
3369605570
3369610697
3369617289
3369620585
3369627115
3369631876
3369637674
3369642923
3369648234
3369653238
3369660196
3369664408
3369669840
3369674295
3369679117
3369685709
3369691935
3369698587
3369702921
3369707926
3369712870
3369718546
3369722818
3369729105
3369734293
3369742166
3369749063
3369753763
3369757974
3369764200
3369768900
3369775980
3369780924
3369788065
3369793436
3369796365
3369803629
3369808389
3369815286
3369819986
3369826334
3369833658
3369840311
3369851297
3369856973
3369861856
3369866190
3369873392
3369877054
3369883829
3369889444
3369897195
3369902811
3369909219
3369915384
3369923990
3369929483
3369936075
3369942300
3369952493
3369956704
3369962747
3369969644
3369974405
3369980813
3369986490
3369993692
3369999856
3370004617
3370009988
3370015847
3370020303
3370026040
3370029702
3370037026
3370043923
3370049661
3370054788
3370060891
3370065591
3370071877
3370078164
3370081582
3370088845
3370096047
3370103616
3370108498
3370114053
3370117104
3370126016
3370131448
3370139565
3370144570
3370151345
3370158608
3370166421
3370172158
3370177224
3370181985
3370187844
3370192910
3370200295
3370205666
3370210549
3370215493
3370222573
3370227151
3370232461
3370238503
3370243874
3370249917
3370255044
3370259560
3370265053
3370269265
3370275307
3370281105
3370288674
3370295266
3370296608
3370305886
3370309243
3370315651
3370321022
3370325966
3370330605
3370338295
3370343178
3370349648
3370353981
3370359047
3370364907
3370369301
3370375099
3370381752
3370387978
3370393166
3370398171
3370401833
3370410133
3370413551
3370421242
3370426369
3370431923
3370436501
3370443092
3370448097
3370453163
3370459633
3370465309
3370470253
3370477577
3370483742
3370489540
3370493812
3370499122
3370504494
3370510048
3370515724
3370521217
3370528847
3370534096
3370539833
3370544594
3370550697
3370556251
3370560829
3370566871
3370572975
3370579261
3370584083
3370590614
3370595985
3370600441
3370606422
3370610939
3370617775
3370624794
3370628150
3370635047
3370638221
3370644569
3370652320
3370656959
3370663551
3370669776
3370674903
3370679603
3370686073
3370691200
3370696937
3370701637
3370707496
3370712928
3370720802
3370727760
3370733131
3370741309
3370747596
3370753760
3370759376
3370766090
3370770667
3370775794
3370781409
3370787879
3370792090
3370797767
3370803992
3370810645
3370815345
3370821815
3370826087
3370830909
3370837256
3370841041
3370847388
3370855506
3370860144
3370865943
3370871009
3370873816
3370881568
3370886573
3370891639
3370896155
3370903174
3370907752
3370915808
3370921302
3370927344
3370932044
3370937354
3370942359
3370949439
3370956214
3370960791
3370967261
3370972205
3370977881
3370983618
3370988135
3370993628
3371000464
3371005957
3371012488
3371014014
3371021826
3371026648
3371032690
3371038916
3371044958
3371050085
3371056555
3371062903
3371070105
3371075598
3371083838
3371088049
3371097082
3371102759
3371109350
3371117407
3371123022
3371128027
3371134741
3371141943
3371147619
3371153784
3371158911
3371163794
3371166845
3371175940
3371179174
3371185949
3371191259
3371198278
3371203588
3371211218
3371216406
3371221655
3371227148
3371230261
3371238195
3371243872
3371250463
3371256018
3371263952
3371269506
3371274999
3371281408
3371286596
3371291967
3371298498
3371306371
3371308447
3371316320
3371322118
3371328649
3371334264
3371341955
3371347875
3371355077
3371360815
3371371068
3371374486
3371380712
3371385412
3371392187
3371398778
3371404027
3371408971
3371414525
3371420812
3371425939
3371432714
3371437963
3371442846
3371450231
3371455175
3371460424
3371466222
3371472081
3371476781
3371483251
3371487645
3371493810
3371500463
3371505895
3371511205
3371516149
3371521825
3371526158
3371532201
3371536840
3371543981
3371549718
3371553929
3371558751
3371565892
3371569554
3371577123
3371580907
3371590794
3371595006
3371601659
3371606419
3371613683
3371618382
3371624242
3371629063
3371637181
3371643651
3371648412
3371654027
3371657140
3371664159
3371671117
3371675633
3371682347
3371689732
3371695836
3371700841
3371705723
3371710423
3371718602
3371723301
3371729527
3371737217
3371744725
3371748509
3371754979
3371760533
3371765599
3371771885
3371777440
3371782322
3371787999
3371794896
3371799900
3371805210
3371811741
3371816685
3371821934
3371827488
3371832920
3371840245
3371846714
3371851902
3371856663
3371862461
3371868992
3371874485
3371878941
3371885777
3371891758
3371893772
3371902561
3371906345
3371913548
3371916660
3371923252
3371928135
3371936131
3371945286
3371951084
3371956638
3371964146
3371969456
3371975498
3371984714
3371989353
3371994907
3371999912
3372006138
3372011143
3372015964
3372021335
3372025913
3372033176
3372038181
3372043308
3372047764
3372053562
3372059543
3372063450
3372070285
3372072239
3372081699
3372087375
3372091526
3372097507
3372101841
3372107456
3372112949
3372118564
3372125766
3372129184
3372136264
3372141513
3372148532
3372153232
3372158298
3372164585
3372170871
3372177768
3372182529
3372187839
3372193881
3372199313
3372204746
3372209628
3372214816
3372222568
3372227756
3372234164
3372238986
3372244052
3372249728
3372254977
3372262118
3372265842
3372274570
3372279941
3372285556
3372290317
3372298007
3372302463
3372308383
3372313083
3372318759
3372325778
3372331149
3372335849
3372342441
3372347262
3372350436
3372357089
3372365023
3372369601
3372372653
3372380893
3372384494
3372392611
3372398288
3372405551
3372409030
3372416476
3372421603
3372428134
3372432772
3372440341
3372445223
3372447360
3372455233
3372464511
3372470248
3372474093
3372481234
3372486666
3372494479
3372499972
3372505526
3372513094
3372518893
3372525912
3372530428
3372537447
3372543063
3372550387
3372556429
3372561434
3372569979
3372577608
3372584749
3372588289
3372595492
3372598299
3372605257
3372610079
3372617586
3372622164
3372627779
3372633577
3372638399
3372643953
3372649874
3372654085
3372659517
3372666414
3372671053
3372677401
3372680819
3372687349
3372690218
3372698458
3372706575
3372711641
3372716280
3372722689
3372728182
3372735445
3372742647
3372748812
3372753938
3372761507
3372764925
3372772188
3372775301
3372782747
3372787630
3372793672
3372800203
3372807466
3372812837
3372819185
3372824007
3372829439
3372834871
3372840974
3372846590
3372853670
3372861787
3372865571
3372872957
3372877656
3372883699
3372888338
3372894319
3372900911
3372905977
3372913606
3372918794
3372924043
3372927339
3372933992
3372941743
3372947236
3372952974
3372959504
3372966218
3372972444
3372977754
3372982698
3372989778
3372993379
3373001374
3373004853
3373012055
3373017366
3373023835
3373029084
3373035798
3373042085
3373044160
3373052827
3373060151
3373065400
3373068208
3373077363
3373080964
3373087251
3373093232
3373100434
3373106599
3373112275
3373118073
3373124116
3373129609
3373137910
3373142792
3373149323
3373154389
3373162446
3373168366
3373176362
3373184479
3373190705
3373196564
3373203766
3373209504
3373214936
3373219513
3373226105
3373232209
3373237885
3373243134
3373249237
3373254242
3373260224
3373263764
3373270173
3373274994
3373281342
3373286103
3373291169
3373298432
3373304718
3373308075
3373314911
3373317841
3373324555
3373328827
3373335175
3373339813
3373347748
3373352570
3373357575
3373363617
3373369415
3373374115
3373377899
3373385162
3373392120
3373397919
