3532581593
3532586476
3532592335
3532597951
3532604115
3532609242
3532615163
3532620412
3532626698
3532632802
3532639577
3532644826
3532650746
3532657155
3532663319
3532671437
3532679127
3532685414
3532690907
3532697438
3532704335
3532713673
3532720570
3532727345
3532739552
3532748402
3532755482
3532763111
3532770863
3532777760
3532785938
3532792530
3532801380
3532807423
3532815296
3532822254
3532829212
3532835743
3532843983
3532849842
3532856556
3532861805
3532869801
3532874317
3532882801
3532892261
3532902088
3532908985
3532919666
3532927357
3532933887
3532942615
3532948047
3532956653
3532964222
3532971912
3532981556
3532990101
3532995472
3533004871
3533011524
3533018970
3533027454
3533037830
3533044422
3533052906
3533057361
3533067615
3533075488
3533083362
3533090808
3533096668
3533106677
3533113086
3533120715
3533128223
3533138599
3533146289
3533154224
3533160022
3533169666
3533176990
3533184253
3533192798
3533198474
3533206714
3533213672
3533221179
3533230701
3533237170
3533245776
3533254809
3533261157
3533270556
3533278857
3533287463
3533294848
3533303271
3533311877
3533320544
3533326770
3533336230
3533341723
3533350390
3533356921
3533366442
3533375048
3533382739
3533390307
3533398303
3533405261
3533412524
3533420763
3533427172
3533436877
3533443346
3533454699
3533462756
3533470202
3533476427
3533483874
3533491930
3533499621
3533506823
3533514818
3533523913
3533530871
3533538561
3533545885
3533553332
3533563768
3533572924
3533580919
3533588793
3533596727
3533603746
3533611620
3533618944
3533625292
3533634020
3533640184
3533649828
3533657274
3533664842
3533669237
3533680101
3533687609
3533695116
3533701280
3533709032
3533716722
3533723680
3533731493
3533738817
3533745897
3533753221
3533760912
3533768541
3533776231
3533784288
3533791551
3533797533
3533805589
3533813707
3533821824
3533827623
3533836168
3533844346
3533852403
3533859483
3533867845
3533874193
3533882676
3533888963
3533898301
3533902879
3533912950
3533917955
3533927293
3533933702
3533943040
3533950242
3533957688
3533965928
3533973741
3533981004
3533988389
3533996812
3534002549
3534011887
3534017564
3534024949
3534033311
3534041795
3534048203
3534056992
3534062974
3534070176
3534078477
3534086594
3534093491
3534103013
3534110398
3534117722
3534125046
3534135300
3534145005
3534151352
3534159958
3534166001
3534174057
3534180100
3534187729
3534193894
3534204880
3534209824
3534218857
3534226425
3534233689
3534240891
3534248093
3534255966
3534263108
3534270188
3534278488
3534284836
3534292404
3534300400
3534306259
3534312790
3534319016
3534327499
3534336777
3534343369
3534350204
3534356857
3534362961
3534370285
3534378586
3534384262
3534392319
3534399582
3534405929
3534410995
3534419906
3534426864
3534435592
3534441696
3534450363
3534454208
3534463363
3534471786
3534477401
3534486618
3534493454
3534499069
3534506088
3534512130
3534519088
3534525924
3534533187
3534541488
3534548690
3534555953
3534564071
3534571334
3534578353
3534585678
3534592452
3534599593
3534607284
3534613998
3534621505
3534628341
3534637069
3534644637
3534652206
3534660751
3534668014
3534675643
3534683211
3534691329
3534699935
3534708053
3534714889
3534724532
3534732406
3534739852
3534746993
3534754134
3534763411
3534772139
3534779830
3534789290
3534796859
3534803756
3534811507
3534819686
3534827071
3534834761
3534842391
3534849959
3534856917
3534865218
3534872969
3534879927
3534888289
3534894698
3534902388
3534909224
3534916548
3534922163
3534932112
3534938277
3534947554
3534955794
3534962630
3534969710
3534977095
3534986128
3534991499
3534999556
3535003340
3535011702
3535018538
3535026045
3535031843
3535038313
3535044783
3535049910
3535058272
3535065413
3535071455
3535076765
3535082930
3535090376
3535095320
3535102095
3535108381
3535113569
3535120100
3535126264
3535131086
3535138166
3535142927
3535149092
3535152326
3535159223
3535168745
3535174299
3535179975
3535184980
3535189802
3535195539
3535200422
3535206281
3535212629
3535217024
3535223432
3535228925
3535234113
3535239484
3535245649
3535250715
3535256330
3535261274
3535266584
3535272504
3535277509
3535283674
3535288190
3535295392
3535300947
3535306440
3535312604
3535318220
3535323224
3535327924
3535335554
3535341596
3535346723
3535351667
3535356977
3535364728
3535369916
3535376813
3535383405
3535388532
3535391523
3535398297
3535403974
3535410077
3535416547
3535421064
3535426740
3535432416
3535438092
3535442487
3535448834
3535456891
3535462018
3535467206
3535472272
3535478131
3535483685
3535490827
3535497296
3535503034
3535509686
3535515118
3535519879
3535525372
3535531659
3535538251
3535545209
3535551190
3535556683
3535562176
3535567731
3535573407
3535579694
3535584881
3535590619
3535596295
3535601178
3535607098
3535612164
3535619855
3535625531
3535630780
3535636334
3535641766
3535646283
3535651776
3535657940
3535662823
3535669354
3535674725
3535679974
3535684857
3535691204
3535695111
3535700665
3535707196
3535713116
3535717572
3535723126
3535728863
3535733074
3535737957
3535744000
3535750408
3535755779
3535761028
3535766461
3535771710
3535776898
3535782391
3535788189
3535794232
3535799847
3535804058
3535810345
3535814922
3535821026
3535829205
3535837444
3535842632
3535848797
3535854717
3535859295
3535867229
3535870281
3535878704
3535885296
3535889934
3535897259
3535901836
3535908733
3535915325
3535921184
3535926800
3535931072
3535937603
3535942363
3535948772
3535955364
3535960735
3535966106
3535972942
3535978740
3535983806
3535990215
3535997234
3536002361
3536008525
3536013591
3536020183
3536027019
3536033061
3536042400
3536048320
3536053630
3536059490
3536064983
3536071758
3536076824
3536083354
3536089580
3536095073
3536100444
3536107097
3536114055
3536119060
3536126323
3536131755
3536137737
3536142314
3536149821
3536155315
3536160747
3536167400
3536172893
3536178264
3536184245
3536189250
3536195170
3536201701
3536206401
3536212687
3536217326
3536223674
3536228435
3536235209
3536241801
3536247233
3536252971
3536258647
3536264445
3536270060
3536274699
3536280619
3536286418
3536291911
3536299113
3536303141
3536309428
3536315470
3536322917
3536329081
3536334880
3536338175
3536347331
3536352397
3536357890
3536363993
3536369670
3536375712
3536379862
3536386881
3536393107
3536398234
3536404337
3536409953
3536416361
3536423685
3536428568
3536435221
3536441386
3536445658
3536451762
3536457438
3536464640
3536469889
3536475687
3536482462
3536487894
3536493448
3536500040
3536505961
3536512003
3536518351
3536523661
3536529703
3536533304
3536541605
3536546427
3536553751
3536560160
3536565287
3536573526
3536577372
3536584940
3536592203
3536598490
3536604227
3536610025
3536617227
3536623514
3536629679
3536634256
3536639627
3536645975
3536650980
3536656107
3536663309
3536668314
3536673990
3536679361
3536684183
3536689554
3536694742
3536699625
3536705911
3536710916
3536715799
3536720621
3536726663
3536730325
3536737527
3536743692
3536750223
3536754922
3536759683
3536765604
3536770731
3536776224
3536781412
3536788431
3536793252
3536800332
3536803873
3536812784
3536818887
3536825174
3536829995
3536836038
3536841836
3536846414
3536853982
3536857522
3536864724
3536868264
3536876931
3536882852
3536887918
3536893289
3536898904
3536905130
3536909951
3536916909
3536921426
3536928079
3536933145
3536939431
3536944131
3536950173
3536956399
3536960488
3536967263
3536972756
3536978127
3536984353
3536989907
3536996316
3537001626
3537006753
3537012063
3537016274
3537021828
3537028359
3537033425
3537038125
3537043862
3537048623
3537053933
3537061013
3537065835
3537073342
3537077370
3537084389
3537088357
3537094338
3537099038
3537104836
3537110756
3537115029
3537121071
3537128579
3537134011
3537139687
3537144692
3537150795
3537156777
3537161721
3537167031
3537172036
3537176918
3537183510
3537188759
3537193398
3537198586
3537204750
3537209267
3537217507
3537223488
3537230202
3537235390
3537241554
3537246437
3537252968
3537258705
3537264198
3537270729
3537275368
3537281471
3537287514
3537292885
3537297707
3537304787
3537310402
3537315529
3537321877
3537328163
3537333717
3537339577
3537344704
3537351662
3537355202
3537362709
3537368751
3537375526
3537382667
3537389442
3537394508
3537400917
3537407631
3537413551
3537418373
3537427467
3537435035
3537439979
3537445289
3537449928
3537457985
3537463417
3537469337
3537473671
3537480507
3537485878
3537491493
3537497779
3537505287
3537510780
3537516273
3537523231
3537529151
3537533119
3537538795
3537546119
3537552101
3537560035
3537565284
3537573219
3537579139
3537586402
3537591163
3537596229
3537601905
3537607642
3537614051
3537619239
3537625037
3537631446
3537636512
3537641395
3537647010
3537652625
3537657081
3537663734
3537668067
3537674842
3537677772
3537686317
3537691810
3537696509
3537702857
3537708594
3537714759
3537719031
3537725013
3537729468
3537735145
3537739478
3537746924
3537752112
3537757178
3537763221
3537769202
3537774085
3537780127
3537785315
3537792273
3537798377
3537802954
3537809180
3537813758
3537820838
3537826514
3537832251
3537837744
3537843238
3537848853
3537854468
3537860266
3537866065
3537872229
3537878333
3537884680
3537890601
3537896765
3537901587
3537908484
3537911719
3537920691
3537926001
3537931616
3537937048
3537943701
3537949438
3537955298
3537960852
3537966406
3537972998
3537977331
3537983496
3537989111
3537994726
3538001074
3538007239
3538014013
3538019507
3538024511
3538030188
3538035742
3538040259
3538045630
3538052221
3538057531
3538060949
3538067846
3538074072
3538079565
3538085791
3538092443
3538099829
3538106054
3538111181
3538115637
3538121923
3538126196
3538132665
3538139318
3538144384
3538149755
3538154943
3538160925
3538166601
3538171728
3538177709
3538183202
3538187414
3538193700
3538199560
3538205236
3538211767
3538217504
3538222753
3538228490
3538234655
3538239660
3538246252
3538250890
3538257970
3538264867
3538270605
3538276769
3538282384
3538287267
3538293004
3538299108
3538305089
3538311620
3538317602
3538323095
3538327855
3538334386
3538339025
3538345861
3538350866
3538356969
3538360265
3538368871
3538373571
3538379064
3538384679
3538390111
3538396520
3538401464
3538409520
3538416539
3538423619
3538429051
3538433873
3538440221
3538444371
3538452184
3538457128
3538462316
3538472020
3538478368
3538482579
3538488988
3538494176
3538499852
3538504247
3538509801
3538515965
3538520970
3538525365
3538530064
3538535496
3538543431
3538548680
3538555272
3538560094
3538566380
3538571690
3538577244
3538581090
3538587376
3538594334
3538599034
3538605198
3538611363
3538615513
3538621312
3538626133
3538633091
3538638768
3538643345
3538647984
3538652806
3538658543
3538665318
3538671116
3538675877
3538680760
3538686680
3538691685
3538697056
3538703038
3538708653
3538712742
3538717991
3538721958
3538728245
3538733677
3538739536
3538745945
3538749729
3538754917
3538760105
3538766148
3538770237
3538776402
3538781345
3538786594
3538791477
3538796604
3538803013
3538806980
3538813511
3538819798
3538824558
3538829014
3538834873
3538841038
3538846287
3538849399
3538856296
3538862949
3538867405
3538873508
3538878757
3538883518
3538890903
3538896946
3538902012
3538909885
3538916172
3538922397
3538928501
3538934665
3538940464
3538945469
3538952915
3538958591
3538964939
3538971836
3538977390
3538983921
3538988742
3538994358
3538999729
3539004856
3539011325
3539015598
3539021884
3539027805
3539033237
3539038974
3539044773
3539050632
3539056491
3539061557
3539066440
3539072971
3539077792
3539084079
3539089877
3539097812
3539104770
3539111606
3539117099
3539123935
3539128146
3539134799
3539140597
3539146213
3539151401
3539156894
3539162753
3539168735
3539173862
3539180697
3539185153
3539191379
3539196445
3539201694
3539207675
3539214450
3539220065
3539225680
3539231173
3539236483
3539241610
3539248996
3539255282
3539261325
3539265841
3539272067
3539277865
3539282748
3539291171
3539296176
3539301120
3539306185
3539312655
3539317782
3539323458
3539330111
3539336337
3539341769
3539346346
3539352145
3539359042
3539364108
3539371615
3539376681
3539382540
3539388766
3539395174
3539401156
3539407992
3539413485
3539419161
3539425631
3539430758
3539436983
3539443453
3539449068
3539455111
3539459505
3539465914
3539471529
3539477999
3539483065
3539488375
3539494051
3539497591
3539504854
3539509981
3539515535
3539522371
3539526583
3539532991
3539539461
3539545137
3539550631
3539556673
3539561983
3539567720
3539572847
3539580233
3539583651
3539592745
3539597689
3539602816
3539608980
3539614595
3539619905
3539625398
3539630159
3539637361
3539643709
3539650179
3539655733
3539660677
3539666780
3539672945
3539677217
3539684114
3539689912
3539694978
3539700777
3539705904
3539711031
3539716768
3539722322
3539727937
3539733125
3539738802
3539745332
3539748323
3539754732
3539761384
3539766633
3539772249
3539777803
3539782747
3539788484
3539794954
3539800874
3539806917
3539811677
3539817964
3539822664
3539829622
3539834871
3539841340
3539847749
3539853730
3539860566
3539865144
3539870698
3539876741
3539883454
3539891572
3539897798
3539904634
3539908906
3539915193
3539918244
3539925996
3539932710
3539938020
3539944367
3539950715
3539955537
3539962007
3539968537
3539974214
3539979463
3539984589
3539989900
3539995026
3540000092
3540005402
3540010651
3540017426
3540022004
3540029023
3540032197
3540040314
3540043793
3540052033
3540058442
3540063874
3540069306
3540074921
3540079621
3540085175
3540091706
3540099274
3540108124
3540111420
3540119355
3540125702
3540129731
3540135834
3540141510
3540146820
3540151276
3540158661
3540161713
3540169342
3540174897
3540180451
3540187531
3540191925
3540198151
3540202545
3540208649
3540212921
3540219635
3540222748
3540231171
3540236237
3540241486
3540247772
3540252106
3540259430
3540263825
3540270661
3540276276
3540281891
3540288422
3540294098
3540300201
3540306061
3540311859
3540317841
3540323822
3540328461
3540334137
3540339386
3540347137
3540353058
3540358307
3540365997
3540370331
3540376739
3540382660
3540389557
3540395904
3540401642
3540404815
3540412567
3540418915
3540424530
3540430389
3540436004
3540440826
3540446197
3540452118
3540458648
3540465606
3540470367
3540476959
3540484100
3540489715
3540496307
3540500701
3540506927
3540513092
3540518341
3540522735
3540528961
3540533782
3540539337
3540545135
3540550750
3540556243
3540562713
3540571441
3540575958
3540582549
3540588287
3540593475
3540598907
3540604888
3540610320
3540615813
3540622893
3540627410
3540634612
3540640777
3540646758
3540651275
3540657500
3540662444
3540668059
3540673675
3540678741
3540684356
3540689483
3540697417
3540700591
3540706878
3540711211
3540717681
3540723296
3540729888
3540735076
3540740630
3540745818
3540751433
3540756560
3540760833
3540768096
3540773223
3540779082
3540783782
3540790679
3540796111
3540803069
3540806304
3540815154
3540820159
3540825713
3540832121
3540836333
3540842253
3540847746
3540853728
3540859709
3540865325
3540871367
3540876738
3540881560
3540887785
3540892363
3540899382
3540904143
3540911040
3540914275
3540921538
3540927763
3540933318
3540939299
3540945586
3540951750
3540957976
3540963530
3540968413
3540975859
3540979338
3540986845
3540991850
3540999174
3541005339
3541011747
3541018095
3541024260
3541029570
3541035429
3541041410
3541047331
3541052275
3541058317
3541063566
3541069670
3541076261
3541081083
3541087858
3541091276
3541098234
3541102995
3541110868
3541115873
3541121549
3541127531
3541133024
3541138578
3541144071
3541149870
3541155790
3541160368
3541166410
3541173307
3541179777
3541185697
3541190580
3541197355
3541201994
3541209318
3541215055
3541220609
3541226591
3541232023
3541237211
3541243436
3541249113
3541255094
3541261136
3541266691
3541272001
3541278226
3541285001
3541289335
3541296476
3541301908
3541308866
3541313627
3541320524
3541326322
3541332181
3541337613
3541343412
3541349088
3541354703
3541360685
3541366178
3541372098
3541377530
3541383268
3541389310
3541394620
3541400662
3541405850
3541411954
3541416898
3541423001
3541428311
3541433194
3541439908
3541444547
3541451505
3541457486
3541462979
3541468228
3541475919
3541481412
3541487576
3541492886
3541498868
3541504056
3541510831
3541516751
3541522427
3541527920
3541533353
3541538907
3541545376
3541550870
3541556485
3541562161
3541568570
3541575589
3541580960
3541587063
3541592312
3541598538
3541603909
3541608670
3541616910
3541622464
3541627957
3541633450
3541638943
3541644314
3541649868
3541655301
3541660794
3541666897
3541672390
3541677945
3541684048
3541689846
3541696072
3541702786
3541708706
3541713772
3541721951
3541728298
3541734402
3541740322
3541746243
3541751858
3541755093
3541762478
3541768276
3541773892
3541779873
3541786343
3541794582
3541799282
3541805630
3541812099
3541817715
3541823147
3541828762
3541834988
3541840420
3541846035
3541852138
3541857326
3541863491
3541868557
3541874721
3541880886
3541885708
3541892421
3541897243
3541902981
3541907619
3541914394
3541919094
3541925991
3541932766
3541938198
3541943264
3541949001
3541955471
3541959926
3541967189
3541971157
3541978176
3541984340
3541989345
3541995327
3542000453
3542009365
3542014980
3542020473
3542026149
3542031459
3542037135
3542043056
3542049465
3542057155
3542063442
3542069057
3542075160
3542080653
3542085963
3542091518
3542097682
3542103664
3542109035
3542115382
3542120937
3542127650
3542132655
3542138942
3542145351
3542151271
3542156886
3542162684
3542168361
3542174037
3542180629
3542187404
3542193507
3542198329
3542204677
3542209987
3542216090
3542221400
3542227626
3542232997
3542238002
3542246058
3542250697
3542256129
3542262782
3542268946
3542275172
3542284816
3542290858
3542295924
3542301173
3542306605
3542312281
3542318507
3542322901
3542329066
3542334010
3542340052
3542345728
3542351038
3542356959
3542362086
3542367762
3542373866
3542379115
3542385340
3542390284
3542396632
3542402857
3542408472
3542414515
3542420557
3542426050
3542431483
3542437098
3542443812
3542448511
3542454554
3542459009
3542465723
3542471155
3542478785
3542484644
3542490809
3542496058
3542500574
3542507532
3542512354
3542519678
3542526087
3542531702
3542537684
3542543543
3542550379
3542555445
3542561121
3542567896
3542573694
3542578638
3542584558
3542591577
3542597132
3542603296
3542610864
3542616541
3542622095
3542627649
3542633203
3542638819
3542643335
3542653528
3542662256
3542667749
3542673364
3542679834
3542685571
3542690271
3542696313
3542701562
3542707727
3542713647
3542718347
3542724573
3542729150
3542736230
3542741968
3542747827
3542753503
3542759241
3542765283
3542771387
3542776758
3542782922
3542788232
3542794397
3542799157
3542805566
3542812524
3542818017
3542824609
3542829370
3542836450
3542842187
3542847802
3542853234
3542858911
3542865014
3542871423
3542878259
3542884118
3542889245
3542895288
3542901025
3542905725
3542912438
3542917138
3542925500
3542933434
3542940270
3542947717
3542956567
3542965173
3542974023
3542981225
3542989465
3542996606
3543005273
3543012109
3543020898
3543029443
3543036767
3543041711
3543047814
3543052453
3543058007
3543064232
3543071190
3543076928
3543082909
3543087792
3543093895
3543099694
3543105065
3543110924
3543115624
3543120873
3543125695
3543132348
3543138878
3543144371
3543149987
3543154930
3543160302
3543165490
3543171776
3543178429
3543183434
3543188561
3543194786
3543201317
3543206139
3543211754
3543217735
3543223046
3543227989
3543233238
3543237938
3543243431
3543249352
3543254967
3543259667
3543265953
3543270409
3543275658
3543280968
3543286461
3543292564
3543298424
3543303978
3543307335
3543315575
3543321617
3543326317
3543335045
3543340477
3543346947
3543351280
3543358116
3543362144
3543368248
3543374534
3543379905
3543385887
3543389793
3543395042
3543399437
3543405479
3543412132
3543416282
3543422569
3543427635
3543432762
3543436729
3543443199
3543448387
3543453147
3543457603
3543462364
3543468284
3543473350
3543478538
3543484397
3543490379
3543494956
3543500266
3543504539
3543511131
3543515586
3543522300
3543529380
3543535056
3543540061
3543545432
3543550132
3543555320
3543561607
3543565940
3543572715
3543577476
3543584007
3543588279
3543593711
3543597984
3543604392
3543610923
3543616538
3543622031
3543627402
3543632590
3543638145
3543643943
3543650046
3543655479
3543661155
3543666709
3543671226
3543677756
3543682090
3543691062
3543697837
3543702536
3543708457
3543714194
3543718894
3543724082
3543729575
3543736838
3543742270
3543747031
3543752585
3543758017
3543763205
3543768698
3543775473
3543782859
3543788230
3543793601
3543798789
3543803916
3543809287
3543816123
3543821555
3543827475
3543833579
3543837973
3543846762
3543851401
3543857810
3543863974
3543868247
3543875205
3543880026
3543885580
3543891989
3543897116
3543902731
3543909079
3543914267
3543918783
3543923727
3543929465
3543935324
3543941000
3543945944
3543951437
3543956137
3543961264
3543966086
3543971213
3543977499
3543983297
3543988424
3543993734
3543998922
3544003988
3544010397
3544017660
3544022421
3544027853
3544032125
3544038412
3544042746
3544049154
3544055441
3544060995
3544066488
3544071615
3544076742
3544081808
3544086874
3544092672
3544098104
3544104025
3544109274
3544113668
3544119528
3544123983
3544130575
3544136251
3544142294
3544148153
3544153524
3544158834
3544163961
3544169637
3544176473
3544182882
3544187032
3544192342
3544198629
3544204000
3544207418
3544215292
3544221395
3544227010
3544232686
3544237874
3544243246
3544248372
3544254476
3544259725
3544266622
3544270833
3544277059
3544282735
3544287923
3544293233
3544298971
3544304036
3544309591
3544315694
3544319539
3544325155
3544330342
3544336507
3544343709
3544349630
3544353048
3544361837
3544366780
3544371663
3544376729
3544382649
3544388997
3544392903
3544398152
3544402303
3544408956
3544414998
3544420369
3544425923
3544431416
3544436360
3544441914
3544446553
3544452290
3544459065
3544465779
3544471272
3544476888
3544481831
3544486470
3544491963
3544498067
3544502400
3544509785
3544514607
3544520039
3544524800
3544531819
3544537190
3544541340
3544546101
3544553609
3544559651
3544564778
3544569356
3544574421
3544579854
3544585957
3544592244
3544596760
3544603718
3544609944
3544615620
3544622456
3544627522
3544633564
3544638630
3544644429
3544650227
3544655476
3544661030
3544668232
3544673725
3544678242
3544684101
3544688435
3544694844
3544699116
3544705036
3544712300
3544718586
3544724262
3544729572
3544735371
3544740376
3544744587
3544749958
3544756184
3544762104
3544767658
3544771870
3544777912
3544782368
3544787800
3544794270
3544800251
3544805805
3544811054
3544815327
3544821796
3544826252
3544832600
3544839496
3544844074
3544849994
3544854328
3544863300
3544869159
3544876972
3544883564
3544887897
3544893879
3544899433
3544904133
3544908649
3544913959
3544920307
3544926044
3544931232
3544935505
3544941242
3544945270
3544951129
3544956806
3544962299
3544967731
3544971637
3544977985
3544983661
3544988788
3544996173
3545001972
3545006366
3545012714
3545017658
3545022724
3545027545
3545033283
3545040485
3545044696
3545050250
3545055316
3545061786
3545065509
3545071918
3545077411
3545083514
3545087787
3545094989
3545097919
3545104205
3545108478
3545115802
3545122089
3545126788
3545133502
3545139239
3545144183
3545149676
3545155902
3545161090
3545167743
3545171649
3545179278
3545185260
3545190631
3545197345
3545202960
3545210467
3545216021
3545221515
3545227923
3545234149
3545239703
3545246783
3545251849
3545258868
3545263018
3545269793
3545274371
3545282366
3545288409
3545293841
3545298602
3545304278
3545310381
3545316485
3545322772
3545327471
3545333819
3545340655
3545346636
3545351763
3545358538
3545364031
3545372027
3545377581
3545383868
3545389727
3545394427
3545401385
3545407000
3545410845
3545418047
3545422808
3545427569
3545434649
3545440264
3545444964
3545451006
3545456011
3545461687
3545466143
3545472124
3545478411
3545484453
3545489519
3545494280
3545499895
3545506426
3545513140
3545518084
3545524248
3545529741
3545535051
3545541826
3545549334
3545555437
3545560625
3545565447
3545571001
3545578020
3545584185
3545588945
3545594866
3545600481
3545605242
3545611772
3545618181
3545623064
3545628740
3545635759
3545640703
3545647783
3545653093
3545660234
3545665483
3545670427
3545676347
3545683244
3545688371
3545696184
3545702226
3545708147
3545713151
3545717241
3545724077
3545730180
3545734209
3545741167
3545746782
3545751787
3545757707
3545763139
3545768876
3545775834
3545781083
3545786210
3545791337
3545798112
3545803117
3545808366
3545812944
3545819413
3545825883
3545833329
3545838029
3545842363
3545849687
3545854447
3545860063
3545866105
3545871476
3545878129
3545885392
3545890702
3545895707
3545900529
3545908463
3545914628
3545919999
3545925553
3545931413
3545936112
3545942704
3545948747
3545954179
3545959977
3545966264
3545970963
3545977128
3545982804
3545988236
3545993119
3545997819
3546004838
3546010087
3546014908
3546021134
3546025223
3546035538
3546042130
3546048356
3546054764
3546061966
3546068986
3546074601
3546080765
3546087357
3546092911
3546099564
3546104264
3546110978
3546117752
3546123063
3546129776
3546134293
3546141434
3546147232
3546153092
3546158951
3546164688
3546171097
3546176041
3546180680
3546185745
3546191056
3546195999
3546201187
3546207108
3546212601
3546217117
3546223160
3546227249
3546232864
3546237320
3546244644
3546250320
3546256058
3546262039
3546265579
3546273636
3546280106
3546285416
3546291702
3546296341
3546304214
3546311722
3546317337
3546324417
3546330459
3546335220
3546340591
3546345718
3546350845
3546354996
3546362015
3546367691
3546372879
3546378067
3546383133
3546387954
3546392715
3546398758
3546403824
3546410476
3546414627
3546421280
3546424392
3546430740
3546436721
3546440567
3546447036
3546451065
3546457901
3546463089
3546467910
3546474075
3546480606
3546486404
3546491531
3546496292
3546502456
3546507583
3546513442
3546518874
3546524062
3546530837
3546534866
3546541396
3546545364
3546551223
3546557204
3546564040
3546568984
3546573989
3546580093
3546585220
3546590713
3546596816
3546603896
3546608169
3546615493
3546621352
3546627395
3546633559
3546639358
3546646743
3546653151
3546659316
3546665236
3546672011
3546677565
3546683120
3546688186
3546694228
3546698989
3546706191
3546712050
3546718337
3546724318
3546730849
3546736830
3546743178
3546749221
3546754714
3546760146
3546766005
3546771132
3546777602
3546784987
3546791274
3546797865
3546804335
3546811049
3546816786
3546823378
3546828444
3546835341
3546840041
3546847365
3546852431
3546858534
3546863112
3546869215
3546875258
3546880263
3546886000
3546891737
3546896681
3546901076
3546905470
3546912306
3546918349
3546923170
3546927992
3546932631
3546937880
3546943617
3546949476
3546955031
3546960768
3546965834
3546970900
3546976820
3546982130
3546987135
3546993177
3546998426
3547003309
3547008863
3547013380
3547020216
3547024305
3547030592
3547035597
3547041090
3547046278
3547051466
3547057203
3547063002
3547068189
3547076185
3547080702
3547085584
3547092115
3547096937
3547103651
3547106764
3547114515
3547120374
3547126478
3547134474
3547139723
3547144849
3547150892
3547156812
3547162489
3547166029
3547174146
3547178846
3547184827
3547189832
3547194105
3547201673
3547204603
3547212781
3547217969
3547221998
3547229200
3547236463
3547240613
3547247938
3547254590
3547261487
3547268323
3547274549
3547281202
3547286451
3547294263
3547299085
3547304700
3547310498
3547316724
3547320996
3547328138
3547332410
3547338880
3547344251
3547348950
3547355115
3547359082
3547366284
3547371472
3547376416
3547383740
3547388989
3547393872
3547399182
3547405835
3547411450
3547416516
3547422620
3547428174
3547434888
3547439954
3547446423
3547451184
3547457288
3547461743
3547467847
3547473584
3547479565
3547485669
3547490918
3547496899
3547502270
3547507153
3547512952
3547519238
3547525281
3547531201
3547537060
3547545117
3547550732
3547556286
3547560376
3547567273
3547572155
3547578503
3547585583
3547593152
3547598767
3547606091
3547611706
3547617382
3547624279
3547629406
3547636731
3547642407
3547647412
3547654187
3547659497
3547666271
3547670544
3547676953
3547683544
3547688061
3547695507
3547700207
3547705151
3547711498
3547715771
3547722485
3547727917
3547734570
3547741406
3547749462
3547753796
3547761059
3547767467
3547772350
3547778576
3547783215
3547790783
3547796764
3547802074
3547808056
3547813610
3547820263
3547825573
3547831859
3547837230
3547842480
3547847362
3547853527
3547860424
3547866466
3547870983
3547877025
3547882824
3547887401
3547893627
3547898388
3547906139
3547912120
3547917675
3547923229
3547928783
3547934703
3547940197
3547944957
3547950145
3547956432
3547962352
3547968028
3547974010
3547979564
3547984447
3547990672
3547995433
3548003307
3548008678
3548014354
3548020335
3548025951
3548032115
3548036571
3548043956
3548048717
3548056346
3548059825
3548067393
3548072765
3548079112
3548085460
3548091319
3548097362
3548102672
3548109080
3548115428
3548121287
3548126903
3548134471
3548140086
3548145640
3548151011
3548156566
3548162608
3548168467
3548175242
3548181102
3548186046
3548192149
3548197032
3548203257
3548209239
3548213877
3548220835
3548225657
3548232493
3548237925
3548243540
3548249339
3548255076
3548261973
3548270030
3548276560
3548282908
3548287364
3548293589
3548299632
3548306162
3548311839
3548317332
3548321848
3548329112
3548334788
3548340464
3548345835
3548352366
3548358103
3548363291
3548368601
3548371775
3548379282
3548385691
3548391245
3548396189
3548401804
3548408152
3548414255
3548419260
3548425120
3548431406
3548437449
3548442576
3548448862
3548454538
3548459726
3548465342
3548471384
3548477427
3548482981
3548487314
3548494516
3548499277
3548506235
3548511606
3548517771
3548522470
3548529734
3548536020
3548541635
3548547373
3548552988
3548557932
3548563486
3548569040
3548574777
3548581186
3548587107
3548592600
3548599130
3548606210
3548611398
3548617319
3548620554
3548628366
3548634531
3548640268
3548647043
3548653452
3548659067
3548665964
3548672067
3548676645
3548684579
3548690317
3548695261
3548701425
3548707468
3548712839
3548719003
3548724862
3548729562
3548736642
3548741891
3548748666
3548754220
3548759713
3548763498
3548770089
3548776437
3548782113
3548787423
3548793100
3548799264
3548805673
3548812143
3548820687
3548827401
3548832223
3548838449
3548844796
3548849740
3548856393
3548861947
3548867623
3548873361
3548877999
3548884896
3548889474
3548896127
3548901437
3548906503
3548912179
3548917245
3548922860
3548928048
3548933541
3548939217
3548945687
3548950021
3548956368
3548961495
3548967965
3548972359
3548978402
3548984811
3548990243
3548995553
3549001168
3549007088
3549013070
3549018197
3549024361
3549030526
3549035103
3549041024
3549045723
3549052681
3549057381
3549065499
3549071358
3549075814
3549082955
3549087288
3549094429
3549098702
3549106087
3549110970
3549117928
3549122689
3549130562
3549136544
3549142647
3549145943
3549154061
3549160103
3549164131
3549172249
3549176521
3549182991
3549189522
3549194954
3549202522
3549208687
3549214729
3549220284
3549225533
3549230965
3549237251
3549243050
3549248909
3549254890
3549259834
3549265755
3549272102
3549276863
3549283211
3549288155
3549296028
3549299507
3549307747
3549312446
3549317940
3549324470
3549330208
3549336311
3549341743
3549346931
3549352913
3549359260
3549365791
3549372078
3549377266
3549383491
3549388130
3549395393
3549401497
3549407173
3549412788
3549418953
3549424690
3549429939
3549436164
3549442207
3549448738
3549453987
3549460090
3549465522
3549472175
3549477851
3549483528
3549489326
3549493598
3549500373
3549506660
3549512580
3549518562
3549524177
3549528877
3549535835
3549541084
3549547004
3549552680
3549558417
3549561774
3549569770
3549575141
3549580695
3549586799
3549592597
3549599677
3549605720
3549610602
3549615241
3549622260
3549628303
3549633857
3549639777
3549645514
3549651069
3549656806
3549661628
3549667609
3549673224
3549680671
3549686103
3549691474
3549697089
3549703193
3549708808
3549714728
3549720343
3549727301
3549733405
3549738959
3549743598
3549751044
3549756171
3549761969
3549768195
3549773749
3549780402
3549785895
3549791449
3549797125
3549802557
3549809577
3549815192
3549821845
3549826849
3549833075
3549839301
3549844489
3549850348
3549856512
3549862311
3549867071
3549873968
3549878790
3549885992
3549889532
3549897650
3549908087
3549912909
3549918890
3549925665
3549929999
3549934698
3549942877
3549948736
3549954413
3549959845
3549965948
3549971991
3549978216
3549983343
3549989691
3549996038
3550000677
3550007574
3550012518
3550018682
3550023321
3550029791
3550034613
3550051641
3550057318
3550063726
3550069891
3550075079
3550079107
3550086981
3550092718
3550098211
3550104070
3550108770
3550115118
3550119817
3550127325
3550132879
3550138006
3550142706
3550150274
3550156683
3550161748
3550168767
3550174200
3550179449
3550185308
3550190557
3550195196
3550200689
3550207464
3550213811
3550219182
3550223638
3550230840
3550236516
3550242071
3550248296
3550253423
3550258977
3550264776
3550270269
3550279241
3550284246
3550290227
3550296209
3550301274
3550308171
3550314702
3550320256
3550326604
3550332524
3550337773
3550343816
3550349736
3550354741
3550361699
3550366887
3550373784
3550377263
3550384892
3550390386
3550397221
3550402409
3550408147
3550413396
3550418828
3550425176
3550434087
3550439946
3550446660
3550452275
3550456853
3550464421
3550470402
3550475468
3550481816
3550485905
3550492131
3550498295
3550503300
3550507756
3550514897
3550520634
3550526066
3550531926
3550537724
3550542912
3550548344
3550554997
3550559025
3550564946
3550570378
3550577092
3550583683
3550588810
3550593449
3550599797
3550604496
3550611576
3550616398
3550623417
3550628788
3550634342
3550640141
3550645756
3550651493
3550656925
3550663151
3550668827
3550674198
3550679814
3550686466
3550690678
3550697453
3550703617
3550709965
3550714603
3550720280
3550725040
3550731937
3550736759
3550743595
3550749638
3550756046
3550762455
3550768192
3550772831
3550778324
3550783878
3550789432
3550795597
3550802006
3550808903
3550813053
3550820072
3550826603
3550832950
3550838016
3550845157
3550849857
3550855900
3550860721
3550867679
3550873111
3550879032
3550885868
3550891422
3550897220
3550903446
3550908939
3550914554
3550920658
3550926822
3550932743
3550938663
3550944400
3550949161
3550955081
3550959781
3550967166
3550972965
3550979495
3550989627
3550995364
3551000247
3551005679
3551011050
3551016849
3551022647
3551029361
3551035709
3551041507
3551046939
3551052554
3551058963
3551064639
3551070499
3551074893
3551081607
3551087894
3551093387
3551098025
3551104922
3551109622
3551115115
3551121158
3551126651
3551132693
3551136844
3551144107
3551148806
3551155826
3551161319
3551167117
3551173220
3551178653
3551183841
3551190127
3551195926
3551200686
3551207888
3551212771
3551218386
3551225222
3551230105
3551237063
3551242556
3551248538
3551254580
3551259219
3551266482
3551272463
3551278384
3551284304
3551292666
3551297854
3551303225
3551309206
3551315188
3551319460
3551327761
3551333254
3551337527
3551344607
3551351504
3551357546
3551361819
3551367190
3551371462
3551378176
3551383242
3551389651
3551394472
3551400149
3551406985
3551411562
3551419985
3551425051
3551430971
3551438051
3551442934
3551450136
3551455324
3551460939
3551465700
3551471254
3551475222
3551479006
3551485781
3551490664
3551494326
3551499330
3551504580
3551509401
3551513002
3551516725
3551520754
3551524477
3551529787
3551533083
3551538820
3551542177
3551547792
3551551821
3551554933
3551558901
3551563173
3551568605
3551571169
3551576357
3551580812
3551584779
3551588381
3551592470
3551596864
3551600282
3551606813
3551609255
3551615907
3551620607
3551624330
3551629640
3551633363
3551638979
3551641603
3551647462
3551652589
3551658388
3551663576
3551667421
3551672182
3551677370
3551681764
3551684633
3551691041
3551695863
3551699525
3551704957
3551709047
3551713075
3551717714
3551722841
3551727479
3551731263
3551735963
3551739503
3551743959
3551747438
3551753297
3551758058
3551762513
3551767091
3551771913
3551777345
3551781617
3551786683
3551791810
3551796876
3551801332
3551805177
3551810426
3551814454
3551818238
3551824403
3551829652
3551833009
3551838380
3551841737
3551846192
3551849916
3551856996
3551861329
3551865602
3551869996
3551874879
3551879762
3551883363
3551888856
3551895204
3551899781
3551904603
3551910279
3551914979
3551918336
3551923096
3551929566
3551936585
3551940430
3551946046
3551950684
3551955384
3551961426
3551966859
3551971314
3551975526
3551979432
3551985291
3551987916
3551998658
3552002991
3552007142
3552011353
3552015137
3552020325
3552025025
3552028382
3552034791
3552039490
3552046326
3552050293
3552055237
3552059937
3552064515
3552068909
3552073670
3552078675
3552083863
3552089295
3552094361
3552099366
3552103821
3552109864
3552113831
3552119019
3552123108
3552128662
3552132996
3552138245
3552143677
3552149964
3552152893
3552159119
3552164734
3552169556
3552172852
3552179505
3552185547
3552190857
3552195801
3552201233
3552206238
3552210022
3552215332
3552221619
3552227478
3552232971
3552237732
3552242920
3552247375
3552251099
3552257385
3552261475
3552267456
3552271057
3552276733
3552280701
3552286865
3552289917
3552295349
3552301697
3552307007
3552310119
3552316345
3552321167
3552326172
3552331115
3552337768
3552342712
3552350464
3552355713
3552362610
3552368164
3552374450
3552379821
3552386230
3552391723
3552397033
3552398681
3552405334
3552410827
3552414672
3552419372
3552425720
3552431091
3552436340
3552441650
3552445434
3552450866
3552457519
3552462036
3552467162
3552471923
3552477783
3552482360
3552487975
3552493163
3552498534
3552503478
3552509216
3552514282
3552519836
3552525268
3552531188
3552535461
3552540527
3552543822
3552550841
3552556518
3552562255
3552566955
3552571349
3552576232
3552582213
3552586852
3552592406
3552598937
3552605651
3552608886
3552615111
3552619445
3552624816
3552631102
3552635680
3552643493
3552661559
3552665892
3552672179
3552678588
3552684752
3552690306
3552696776
3552703063
3552708129
3552711791
3552717101
3552722167
3552727172
3552732909
3552739745
3552744689
3552750853
3552756346
3552762145
3552765990
3552771666
3552776305
3552782652
3552787291
3552792174
3552796629
3552802306
3552806578
3552810484
3552817686
3552822997
3552827757
3552834593
3552838255
3552846190
3552851317
3552855528
3552862242
3552866453
3552872435
3552876463
3552883848
3552888914
3552894713
3552902037
3552910460
3552914549
3552921385
3552927061
3552931028
3552936766
3552941710
3552947996
3552952818
3552956358
3552963987
3552970823
3552976683
3552979918
3552986631
3552990355
3552998655
3553004454
3553008543
3553013060
3553019102
3553023863
3553029783
3553034788
3553041746
3553045408
3553051145
3553055540
3553061582
3553066038
3553071958
3553078672
3553084898
3553089475
3553095579
3553100095
3553104917
3553110716
3553115415
3553120664
3553126279
3553130552
3553137205
3553141721
3553146970
3553152586
3553155942
3553163450
3553167173
3553174497
3553177915
3553185422
3553188718
3553196103
3553200986
3553205686
3553212583
3553217710
3553221921
3553228086
3553234128
3553239499
3553243711
3553249997
3553256101
3553262449
3553267148
3553270688
3553278379
3553283933
3553288205
3553293149
3553299375
3553306577
3553314145
3553317685
3553325009
3553329892
3553335752
3553340268
3553346982
3553353452
3553359372
3553363767
3553370175
3553374448
3553379697
3553385495
3553389707
3553395444
3553403561
3553408444
3553414548
3553419308
3553424557
3553431271
3553436215
3553441220
3553445737
3553453244
3553458005
3553462826
3553467953
3553474850
3553480038
3553484128
3553492856
3553495114
3553503354
3553509274
3553513852
3553519772
3553524228
3553529110
3553535031
3553541317
3553549557
3553554318
3553559140
3553565365
3553571530
3553575924
3553580746
3553588070
3553594357
3553599240
3553605160
3553611447
3553617367
3553624325
3553629879
3553637203
3553642636
3553646969
3553652462
3553657223
3553664181
3553668697
3553675106
3553680172
3553687069
3553691158
3553696774
3553702572
3553708126
3553712887
3553719540
3553724606
3553733944
3553739437
3553745663
3553751888
3553755428
3553762264
3553767086
3553773128
3553778316
3553784603
3553789547
3553795040
3553799373
3553805721
3553810360
3553817623
3553823604
3553832332
3553838680
3553843868
3553850338
3553854732
3553860531
3553866512
3553872615
3553877987
3553886165
3553889766
3553896846
3553902095
3553907711
3553912410
3553918758
3553925533
3553930904
3553935543
3553940914
3553944820
3553950130
3553955867
3553961116
3553965816
3553971980
3553976253
3553983455
3553988216
3553995052
3554000850
3554007503
3554012752
3554019160
3554024287
3554029964
3554034480
3554040034
3554044429
3554047908
3554059321
3554066829
3554075007
3554080257
3554085139
3554091731
3554096492
3554102046
3554106624
3554112544
3554118342
3554122493
3554128169
3554132808
3554138484
3554144404
3554148982
3554154963
3554161189
3554166011
3554170283
3554176692
3554180476
3554186457
3554191218
3554196955
3554203486
3554206843
3554213801
3554219416
3554224238
3554229304
3554234736
3554241450
3554246455
3554253108
3554259944
3554265254
3554270625
3554275569
3554281306
3554287165
3554293452
3554299799
3554304621
3554311213
3554317683
3554322688
3554328120
3554333613
3554339655
3554345698
3554351496
3554358637
3554365290
3554373591
3554379267
3554385981
3554394037
3554397944
3554406000
3554412409
3554416620
3554421442
3554427668
3554432978
3554439325
3554444147
3554449823
3554454523
3554461664
3554466120
3554472223
3554478266
3554485834
3554492914
3554498896
3554504755
3554508783
3554514521
3554520563
3554525324
3554528986
3554537409
3554543024
3554548212
3554553461
3554558771
3554563226
3554569513
3554574396
3554580072
3554585993
3554590509
3554596063
3554601923
3554605707
3554611200
3554617609
3554625055
3554629816
3554634943
3554642633
3554648431
3554653924
3554660333
3554665216
3554671319
3554677484
3554682489
3554686822
3554692804
3554697137
3554702264
3554707879
3554714288
3554719049
3554725457
3554731378
3554736383
3554741693
3554746820
3554752496
3554755792
3554762933
3554768121
3554773858
3554777215
3554783075
3554787957
3554794793
3554801995
3554808709
3554813592
3554819634
3554824517
3554830438
3554834649
3554841790
3554847100
3554852349
3554856805
3554863702
3554868157
3554873040
3554878899
3554884148
3554888665
3554895196
3554901604
3554906854
3554911797
3554917840
3554923516
3554928277
3554933343
3554938592
3554949517
3554954400
3554960076
3554964837
3554970696
3554975274
3554982293
3554989007
3554994744
3554999260
3555006035
3555011223
3555017571
3555022698
3555029656
3555036675
3555040825
3555045586
3555053215
3555056755
3555064873
3555068718
3555076714
3555083184
3555088799
3555091851
3555099480
3555105095
3555110649
3555116326
3555121514
3555125298
3555133537
3555141106
3555145806
3555151604
3555157280
3555162163
3555168327
3555174736
3555181328
3555186760
3555191460
3555197380
3555203362
3555208061
3555212639
3555219597
3555228142
3555234184
3555240044
3555245537
3555250725
3555255241
3555261894
3555265373
3555273979
3555275871
3555283745
3555286979
3555295830
3555301445
3555306022
3555310844
3555317741
3555320915
3555328178
3555331840
3555338798
3555342094
3555349968
3555356071
3555360038
3555364494
3555370964
3555375480
3555381401
3555386344
3555391105
3555397941
3555402641
3555409355
3555414726
3555419670
3555424186
3555429862
3555434684
3555441398
3555447196
3555453483
3555458793
3555464530
3555469596
3555475456
3555478812
3555486076
3555489860
3555497428
3555501945
3555510490
3555515433
3555521049
3555525809
3555530387
3555538810
3555545280
3555549552
3555557548
3555562675
3555571464
3555577567
3555584220
3555590262
3555596488
3555602286
3555609122
3555613456
3555620597
3555625419
3555631339
3555637748
3555646781
3555650382
3555658438
3555661856
3555668265
3555673148
3555679496
3555684561
3555690909
3555695731
3555701529
3555706107
3555712882
3555717154
3555723563
3555728751
3555734976
3555740897
3555745719
3555752127
3555757437
3555763236
3555766593
3555772574
3555779593
3555787039
3555792593
3555797293
3555803275
3555809439
3555814810
3555821158
3555828604
3555834891
3555839163
3555845999
3555851309
3555857474
3555864310
3555869620
3555874991
3555881338
3555886099
3555892080
3555896902
3555904104
3555907400
3555914419
3555919607
3555926504
3555932180
3555938162
3555943838
3555948782
3555953970
3555960073
3555967276
3555973013
3555977407
3555983206
3555987661
3555993154
3555999136
3556004019
3556010427
3556013906
3556020742
3556024038
3556031973
3556037649
3556042105
3556046987
3556053213
3556060537
3556066213
3556072622
3556076894
3556083242
3556087331
3556094045
3556099722
3556105764
3556111318
3556117544
3556122915
3556127737
3556134450
3556138784
3556143545
3556150747
3556156118
3556162527
3556167409
3556172841
3556177297
3556182790
3556188650
3556194143
3556199331
3556205739
3556211843
3556218252
3556223012
3556229421
3556234487
3556240041
3556246206
3556253041
3556257924
3556261525
3556269155
3556272451
3556279714
3556283315
3556289052
3556295583
3556302785
3556307668
3556314076
3556319203
3556325002
3556329335
3556334584
3556340749
3556347096
3556351979
3556357350
3556363759
3556369191
3556373525
3556379811
3556386220
3556394032
3556401723
3556407155
3556412099
3556418263
3556424184
3556429250
3556433888
3556439686
3556445912
3556450917
3556456776
3556460072
3556468190
3556471730
3556477406
3556485402
3556490040
3556495045
3556500844
3556505116
3556510792
3556515187
3556521901
3556527577
3556535450
3556540028
3556545094
3556550770
3556556385
3556560719
3556567494
3556574208
3556581166
3556587452
3556591603
3556596974
3556601795
3556608265
3556613209
3556618214
3556626209
3556631458
3556635853
3556641285
3556647083
3556652455
3556658375
3556663380
3556669483
3556675160
3556681263
3556683094
3556692005
3556698231
3556702625
3556705982
3556712940
3556719288
3556726246
3556731251
3556737781
3556744129
3556750355
3556755298
3556761036
3556766468
3556772877
3556777393
3556783802
3556788807
3556794483
3556799305
3556804859
3556813465
3556819324
3556824085
3556830982
3556835926
3556841968
3556846363
3556852039
3556859424
3556864612
3556870960
3556876087
3556881641
3556886463
3556892322
3556897815
3556904224
3556910327
3556914966
3556918628
3556926563
3556932117
3556936633
3556941455
3556947925
3556953357
3556959949
3556964710
3556969714
3556974292
3556982532
3556987476
3556993457
3556999805
3557004993
3557011035
3557016040
3557021716
3557026721
3557032519
3557037524
3557044299
3557048205
3557056445
3557059802
3557068347
3557073779
3557078235
3557083728
3557088183
3557093493
3557100757
3557105822
3557111255
3557116198
3557121753
3557125964
3557132312
3557139087
3557143786
3557148120
3557155932
3557160876
3557167895
3557173083
3557181262
3557186877
3557191882
3557197375
3557204028
3557209033
3557215319
3557219470
3557225512
3557231921
3557237841
3557242419
3557246447
3557253283
3557256640
3557263415
3557269091
3557275988
3557281237
3557289294
3557292651
3557299975
3557303454
3557310717
3557314501
3557322253
3557328661
3557335131
3557338549
3557345751
3557349108
3557355150
3557361254
3557366076
3557373339
3557380602
3557385485
3557391283
3557396654
3557402514
3557408983
3557414415
3557419115
3557425768
3557430468
3557436998
3557442858
3557448046
3557452318
3557457140
3557463671
3557470568
3557476366
3557481188
3557490953
3557499864
3557508226
3557517259
3557527086
3557532335
3557543138
3557548692
3557557665
3557566087
3557571520
3557578172
3557586168
3557599168
3557611375
3557617601
3557622545
3557627183
3557631700
3557635545
3557640245
3557645433
3557650133
3557655015
3557659410
3557664110
3557668748
3557673814
3557678453
3557682847
3557686632
3557691636
3557695787
3557701707
3557705369
3557709459
3557715745
3557719407
3557724351
3557728074
3557732835
3557738023
3557742723
3557747422
3557751939
3557756578
3557761033
3557766221
3557771409
3557776902
3557782273
3557786058
3557791185
3557795640
3557799241
3557804612
3557810044
3557814988
3557819261
3557824082
3557827806
3557833238
3557838426
3557842759
3557848557
3557853867
3557858811
3557864243
3557868333
3557874619
3557877732
3557883653
3557887742
3557893967
3557897080
3557906968
3557911118
3557917649
3557922166
3557927903
3557935227
3557939988
3557945420
3557949387
3557955552
3557958726
3557966965
3557972581
3557976426
3557982285
3557986313
3557991868
3557996750
3558001084
3558006455
3558011277
3558015488
3558020554
3558026169
3558031601
3558036789
3558041306
3558048081
3558053452
3558057907
3558063034
3558068711
3558072983
3558080185
3558083725
3558092697
3558098130
3558103134
3558107956
3558111984
3558115036
3558122177
3558127426
3558132492
3558139511
3558147812
3558151108
3558158493
3558161972
3558168442
3558174057
3558179062
3558184982
3558190781
3558195602
3558202011
3558207016
3558212753
3558217453
3558223312
3558228866
3558235214
3558239548
3558244919
3558249313
3558255417
3558259811
3558264328
3558270553
3558274704
3558280502
3558285141
3558290939
3558295639
3558299972
3558306259
3558312545
3558317856
3558321945
3558329025
3558333847
3558341476
3558347091
3558354415
3558361007
3558366378
3558370712
3558378402
3558382675
3558388534
3558392990
3558399154
3558406417
3558412155
3558419479
3558425033
3558429977
3558433639
3558441512
3558445541
3558452194
3558459091
3558466476
3558471236
3558477096
3558482711
3558488509
3558493636
3558499557
3558505294
3558511642
3558515975
3558522384
3558528609
3558535567
3558540999
3558548263
3558553878
3558558944
3558565047
3558569930
3558574447
3558580367
3558586593
3558591109
3558597335
3558602340
3558609359
3558615950
3558620650
3558627974
3558633040
3558640059
3558648848
3558657759
3558664656
3558671859
3558676985
3558683272
3558689437
3558694625
3558698531
3558706771
3558710250
3558717330
3558720564
3558727950
3558732344
3558739668
3558744856
3558750777
3558755232
3558761641
3558764876
3558771956
3558777510
3558783064
3558788252
3558793990
3558798628
3558803816
3558807783
3558813277
3558818526
3558824324
3558829207
3558836043
3558840742
3558846113
3558851790
3558856734
3558861128
3558867720
3558872664
3558879805
3558885420
3558890242
3558896040
3558900801
3558906721
3558910139
3558918013
3558925032
3558929609
3558933088
3558940901
3558944502
3558951277
3558956160
3558961653
3558967390
3558973005
3558979292
3558983564
3558989057
3558996626
3559001448
3559007246
3559013227
3559019026
3559024030
3559027326
3559035444
3559039594
3559046247
3559051740
3559057417
3559064436
3559069868
3559074628
3559082563
3559086042
3559092878
3559096296
3559104963
3559111799
3559117597
3559122419
3559128950
3559135114
3559141096
3559144636
3559151288
3559156598
3559163679
3559167158
3559173322
3559177595
3559184064
3559188520
3559194196
3559201398
3559207563
3559212323
3559218061
3559224469
3559229779
3559236371
3559240400
3559249372
3559256269
3559261396
3559264691
3559272077
3559277082
3559282697
3559287763
3559293988
3559299420
3559306073
3559310590
3559317182
3559321881
3559327313
3559331830
3559337628
3559342511
3559349103
3559355267
3559360700
3559365704
3559369428
3559376874
3559382672
3559387494
3559393719
3559402570
3559408063
3559413007
3559419781
3559424054
3559429120
3559435223
3559442242
3559449322
3559454144
3559459210
3559463788
3559470318
3559474652
3559481183
3559486065
3559491864
3559498333
3559503643
3559510907
3559517865
3559525677
3559531781
3559537396
3559544781
3559550396
3559557904
3559563275
3559569805
3559576214
3559582196
3559587811
3559593548
3559600567
3559606365
3559612408
3559618694
3559623821
3559629986
3559633587
3559640240
3559647503
3559656048
3559661480
3559666424
3559671368
3559680401
3559685589
3559693340
3559699505
3559703411
3559711712
3559716717
3559721294
3559726238
3559733135
3559736431
3559745037
3559751385
3559757427
3559762371
3559768230
3559772686
3559779217
3559783184
3559789287
3559794231
3559801616
3559805706
3559811077
3559817058
3559824260
3559829021
3559835308
3559840496
3559848735
3559854717
3559862224
3559867717
3559873882
3559879497
3559884319
3559889812
3559897014
3559902385
3559907024
3559913005
3559918437
3559923625
3559927593
3559933025
3559939983
3559944804
3559951152
3559955547
3559958965
3559965862
3559969157
3559975322
3559982280
3559989787
3559993266
3559999370
3560003886
3560009685
3560015971
3560021220
3560026225
3560033000
3560037517
3560044047
3560051005
3560057414
3560064799
3560069438
3560076518
3560080790
3560086772
3560093058
3560097941
3560103862
3560110331
3560115641
3560122294
3560126078
3560134379
3560138041
3560144572
3560149821
3560159465
3560164836
3560170329
3560176676
3560183268
3560187907
3560194682
3560202738
3560209391
3560218669
3560223307
3560228617
3560236552
3560241313
3560247050
3560252970
3560259013
3560263651
3560267558
3560275858
3560283488
3560288432
3560294230
3560299723
3560303019
3560309977
3560313090
3560320414
3560324076
3560332865
3560336222
3560342448
3560347452
3560353312
3560359476
3560364237
3560369425
3560381876
3560385782
3560393290
3560398966
3560405008
3560410135
3560416605
3560421000
3560427103
3560432169
3560439493
3560444925
3560451822
3560458170
3560464945
3560471659
3560477396
3560482462
3560487467
3560493143
3560499368
3560504434
3560512064
3560516275
3560524698
3560528177
3560534891
3560541116
3560545511
3560550943
3560556009
3560561990
3560568582
3560572244
3560578958
3560584756
3560590982
3560594705
3560601541
3560609659
3560614297
3560618204
3560625711
3560629190
3560636209
3560639444
3560646463
3560652383
3560658670
3560663614
3560668130
3560673990
3560677530
3560685952
3560692727
3560698465
3560705545
3560710794
3560717569
3560723916
3560728738
3560736306
3560741128
3560747659
3560753823
3560758950
3560766702
3560772866
3560778970
3560785073
3560794717
3560800271
3560805154
3560810098
3560816018
3560820962
3560827554
3560833840
3560841653
3560846352
3560852395
3560857705
3560863503
3560870950
3560876443
3560883340
3560889504
3560894875
3560899392
3560905068
3560910073
3560913552
3560918923
3560924477
3560931618
3560934731
3560941750
3560946084
3560951577
3560956154
3560962258
3560968789
3560975930
3560979348
3560985634
3560990456
3560996682
3561001137
3561005532
3561012673
3561018593
3561024269
3561033120
3561037941
3561043679
3561049538
3561054360
3561057778
3561066017
3561070778
3561077553
3561083351
3561089211
3561094094
3561099526
3561104103
3561109169
3561114967
3561120278
3561125527
3561129799
3561136086
3561141579
3561147987
3561152321
3561157692
3561163612
3561169106
3561173256
3561178566
3561184120
3561190773
3561195473
3561201088
3561206825
3561212379
3561216408
3561222938
3561229408
3561236488
3561241371
3561246437
3561252662
3561259376
3561263649
3561267189
3561274696
3561278053
3561286110
3561289589
3561297096
3561302223
3561308326
3561313392
3561319984
3561325111
3561331031
3561336036
3561341835
3561348609
3561353797
3561359840
3561366493
3561372901
3561379005
3561383888
3561389808
3561394935
3561402320
3561407081
3561413368
3561418983
3561426307
3561431495
3561437537
3561441749
3561447181
3561453101
3561457557
3561464149
3561469093
3561475379
3561481605
3561486060
3561491859
3561497718
3561501136
3561508399
3561515479
3561520057
3561525001
3561531776
3561535560
3561541907
3561546851
3561552527
3561559974
3561564918
3561569190
3561576209
3561580481
3561586585
3561592261
3561599463
3561607276
3561613990
3561618567
3561625098
3561629615
3561632911
3561640967
3561644324
3561650733
3561656348
3561664038
3561667456
3561675025
3561679846
3561684485
3561690711
3561695227
3561703223
3561709326
3561713538
3561719824
3561724280
