3434664669
3434669307
3434673091
3434678707
3434685115
3434689449
3434695735
3434701473
3434706478
3434711788
3434717159
3434722469
3434727474
3434733394
3434738948
3434744319
3434748958
3434755061
3434761775
3434767818
3434772395
3434779781
3434784602
3434789790
3434797054
3434804134
3434808040
3434816035
3434822200
3434827510
3434834651
3434843806
3434848201
3434856746
3434862910
3434869502
3434876094
3434880977
3434889766
3434897029
3434904048
3434910396
3434917537
3434922969
3434931086
3434937068
3434943843
3434949336
3434958308
3434962580
3434971003
3434977900
3434984431
3434990412
3434997920
3435008357
3435016719
3435027278
3435039057
3435047236
3435055842
3435063349
3435072077
3435079585
3435087885
3435095271
3435102045
3435109492
3435117731
3435125971
3435133601
3435143000
3435149470
3435156794
3435165339
3435174616
3435180414
3435189509
3435197504
3435204706
3435213617
3435219782
3435228205
3435236383
3435244135
3435251520
3435257319
3435266291
3435274652
3435282892
3435291315
3435299799
3435307611
3435315241
3435322077
3435331415
3435337641
3435348383
3435356439
3435363214
3435371332
3435377435
3435386957
3435394281
3435401605
3435410394
3435418390
3435425226
3435432367
3435439935
3435451044
3435460931
3435466669
3435476495
3435482782
3435491449
3435500421
3435508722
3435515985
3435522088
3435530877
3435537286
3435546136
3435552545
3435562127
3435569818
3435577203
3435584100
3435591302
3435599664
3435605401
3435609857
3435620782
3435629083
3435636590
3435642877
3435650506
3435659112
3435666985
3435673394
3435681573
3435695123
3435703973
3435709893
3435718560
3435726128
3435734734
3435740288
3435750725
3435758172
3435765984
3435772088
3435781121
3435785576
3435794365
3435804314
3435810235
3435819573
3435828118
3435833733
3435841729
3435849846
3435856621
3435866509
3435871086
3435882317
3435888237
3435895745
3435903862
3435911431
3435919426
3435927544
3435933525
3435940849
3435948296
3435956291
3435963127
3435971611
3435978630
3435986626
3435994316
3435999870
3436009087
3436015251
3436023979
3436030266
3436038567
3436044487
3436052177
3436058525
3436065727
3436073601
3436082573
3436089226
3436097404
3436104118
3436112602
3436119316
3436129265
3436136223
3436143974
3436151298
3436160637
3436167411
3436175346
3436182487
3436191520
3436200370
3436207878
3436214958
3436223258
3436231559
3436238639
3436245170
3436253776
3436262504
3436270561
3436277641
3436286491
3436293205
3436300590
3436309013
3436316032
3436324699
3436331229
3436340140
3436347648
3436354240
3436363456
3436370048
3436378837
3436385184
3436393363
3436402762
3436410819
3436418815
3436427787
3436436820
3436444632
3436452018
3436462333
3436467215
3436477591
3436485160
3436492179
3436500235
3436506217
3436514334
3436521964
3436529532
3436537100
3436543570
3436551199
3436559134
3436566519
3436572928
3436580618
3436587943
3436595084
3436602774
3436608267
3436615713
3436622610
3436630606
3436637869
3436644827
3436652029
3436659231
3436666373
3436673941
3436680105
3436688345
3436695974
3436703299
3436710745
3436717642
3436723806
3436732718
3436740164
3436748098
3436755362
3436762747
3436770620
3436778250
3436785818
3436793264
3436799917
3436808035
3436817007
3436824209
3436832388
3436838430
3436846975
3436854299
3436861623
3436869192
3436877248
3436884206
3436891470
3436898244
3436903799
3436910940
3436918142
3436929800
3436937124
3436943777
3436949087
3436957693
3436964467
3436972402
3436981130
3436987783
3436995046
3437000966
3437008779
3437014577
3437023061
3437029042
3437038564
3437047536
3437053518
3437058767
3437064199
3437069753
3437076100
3437082143
3437087453
3437095876
3437099538
3437107778
3437117787
3437122609
3437130177
3437138112
3437144093
3437150807
3437155080
3437163930
3437170216
3437176503
3437181508
3437187123
3437193532
3437200734
3437206166
3437211781
3437217091
3437221913
3437226063
3437233082
3437238454
3437244252
3437250111
3437255360
3437261525
3437267018
3437272450
3437277821
3437284657
3437289479
3437294667
3437300526
3437305470
3437311818
3437317982
3437324818
3437330128
3437333973
3437339894
3437345204
3437351307
3437357777
3437362538
3437369679
3437374806
3437380116
3437385914
3437391712
3437398915
3437403553
3437408436
3437414234
3437418751
3437423573
3437429920
3437435658
3437441578
3437445118
3437452992
3437459278
3437464161
3437469837
3437473682
3437481495
3437486744
3437492176
3437498768
3437504078
3437509083
3437515369
3437518970
3437525501
3437530506
3437535877
3437541920
3437545154
3437553455
3437557484
3437564014
3437568287
3437573780
3437581653
3437587757
3437592090
3437599537
3437606678
3437612293
3437619129
3437624256
3437628894
3437632862
3437640064
3437646228
3437652027
3437658313
3437664783
3437671436
3437675769
3437679615
3437687000
3437691211
3437696094
3437703662
3437708667
3437713733
3437719898
3437725940
3437732776
3437737659
3437742908
3437748340
3437753284
3437759021
3437765003
3437770923
3437776111
3437782031
3437786609
3437792224
3437798572
3437805408
3437811450
3437816333
3437822986
3437827563
3437835559
3437841052
3437845996
3437852099
3437858630
3437863208
3437868823
3437874621
3437882556
3437886950
3437891711
3437897937
3437904467
3437910754
3437917956
3437923816
3437930285
3437936267
3437941455
3437946337
3437950549
3437958117
3437964343
3437968432
3437974719
3437980090
3437986071
3437992053
3437996142
3438003222
3438008654
3438013964
3438019641
3438026843
3438032092
3438037524
3438042101
3438048754
3438055041
3438061816
3438066943
3438077807
3438084582
3438089953
3438095751
3438101733
3438108752
3438113329
3438118456
3438124499
3438129748
3438135424
3438141894
3438146654
3438152697
3438157824
3438162768
3438169909
3438175219
3438180529
3438185595
3438190477
3438195238
3438200304
3438206163
3438211229
3438216723
3438222643
3438227465
3438234240
3438240160
3438246080
3438250780
3438257128
3438262072
3438267198
3438273363
3438278368
3438283068
3438288256
3438292406
3438298265
3438303881
3438310106
3438314073
3438319505
3438326647
3438330675
3438336778
3438342943
3438347398
3438354051
3438359178
3438365038
3438371019
3438376024
3438381822
3438387560
3438392686
3438398241
3438403490
3438408983
3438414659
3438418321
3438425523
3438432176
3438436204
3438442979
3438448350
3438453599
3438458665
3438464708
3438471177
3438477220
3438482164
3438489183
3438494920
3438500047
3438506883
3438512559
3438520250
3438524766
3438530992
3438535814
3438541795
3438546861
3438552476
3438558213
3438563707
3438571153
3438575914
3438582078
3438585496
3438593247
3438599534
3438605882
3438610398
3438615403
3438620103
3438625657
3438631700
3438637376
3438642930
3438648362
3438652390
3438657822
3438661424
3438668443
3438674180
3438679734
3438684800
3438689744
3438694810
3438701218
3438708054
3438713242
3438717942
3438722581
3438729050
3438734971
3438739976
3438745286
3438749009
3438755967
3438760850
3438766282
3438772873
3438779404
3438784592
3438789658
3438793503
3438800583
3438807358
3438812729
3438818833
3438825364
3438828782
3438834519
3438840683
3438845688
3438851792
3438857407
3438862778
3438868393
3438874008
3438879013
3438884873
3438890732
3438895188
3438899765
3438907150
3438912277
3438917832
3438922897
3438929062
3438934128
3438942307
3438948471
3438952866
3438960495
3438966721
3438971970
3438976669
3438981430
3438988815
3438995285
3438999618
3439005234
3439010055
3439015243
3439020309
3439025375
3439031113
3439036423
3439041550
3439046066
3439051864
3439057236
3439061508
3439066696
3439072189
3439077194
3439082443
3439086410
3439093124
3439097336
3439102096
3439107223
3439115036
3439121078
3439126327
3439132980
3439137191
3439142685
3439147628
3439154159
3439160385
3439165145
3439170516
3439175521
3439180892
3439186508
3439192245
3439199081
3439204330
3439209335
3439214401
3439220748
3439224716
3439230758
3439236862
3439242294
3439248092
3439253097
3439259444
3439264449
3439270187
3439274825
3439279159
3439286361
3439292464
3439297530
3439303146
3439307296
3439312362
3439319137
3439325118
3439330428
3439336288
3439344527
3439351058
3439355697
3439363692
3439370223
3439376449
3439382674
3439387801
3439394698
3439402633
3439408553
3439414168
3439418929
3439425460
3439430648
3439435591
3439442855
3439447188
3439453536
3439457625
3439463790
3439470198
3439476485
3439482955
3439488082
3439493819
3439499739
3439505110
3439511702
3439517623
3439522872
3439528670
3439532881
3439538680
3439544539
3439550948
3439557112
3439563155
3439568587
3439573592
3439579695
3439587447
3439592268
3439598677
3439603560
3439609480
3439614729
3439620039
3439625838
3439631392
3439635969
3439642622
3439646895
3439652571
3439657881
3439663801
3439668623
3439673384
3439679121
3439684614
3439691450
3439699934
3439704878
3439709333
3439716230
3439721785
3439727156
3439734236
3439740705
3439746260
3439751997
3439757612
3439763166
3439768049
3439772322
3439779524
3439785627
3439789533
3439795881
3439801618
3439806806
3439812055
3439818403
3439823103
3439828779
3439835798
3439842451
3439849043
3439853925
3439860761
3439866132
3439873273
3439879316
3439883344
3439890241
3439895917
3439900861
3439905134
3439911848
3439916608
3439923139
3439928571
3439933637
3439939924
3439945112
3439950849
3439956769
3439962507
3439966657
3439973859
3439977094
3439983930
3439990522
3439994672
3440000837
3440006391
3440012067
3440016278
3440022870
3440028058
3440033490
3440038984
3440044110
3440049665
3440054792
3440061933
3440066083
3440072492
3440077375
3440083295
3440088666
3440093671
3440099164
3440104352
3440110761
3440116620
3440122113
3440126386
3440132855
3440137616
3440143659
3440148175
3440154584
3440159772
3440166180
3440172162
3440178021
3440184491
3440190350
3440195050
3440199750
3440206525
3440211957
3440216656
3440221051
3440226910
3440233258
3440238507
3440243695
3440249188
3440255780
3440261212
3440266217
3440271710
3440277020
3440282452
3440287823
3440293255
3440300152
3440304974
3440311444
3440316143
3440322369
3440327679
3440334820
3440338299
3440345684
3440350567
3440358319
3440364361
3440371197
3440377972
3440384320
3440389141
3440395367
3440399822
3440404644
3440412396
3440417706
3440423138
3440427837
3440432598
3440437298
3440441265
3440448345
3440454937
3440460186
3440465740
3440470989
3440477337
3440480755
3440486309
3440492657
3440498028
3440503582
3440508526
3440514934
3440519512
3440525799
3440532513
3440538616
3440544903
3440549419
3440554546
3440558819
3440566143
3440570781
3440577068
3440583538
3440588054
3440594585
3440600139
3440605999
3440612224
3440616802
3440623516
3440628460
3440632305
3440639995
3440644390
3440650188
3440655681
3440662883
3440668132
3440671855
3440679180
3440686260
3440690776
3440696941
3440701091
3440707927
3440713481
3440720622
3440724712
3440730632
3440735088
3440740032
3440745036
3440751811
3440757243
3440762248
3440767192
3440771770
3440777690
3440782878
3440789714
3440794719
3440800212
3440806132
3440811992
3440817851
3440825419
3440833415
3440838664
3440846782
3440852397
3440857158
3440863200
3440866801
3440872661
3440878215
3440882731
3440888896
3440893962
3440898417
3440904277
3440910685
3440915263
3440920268
3440927409
3440931987
3440938212
3440943339
3440948832
3440953898
3440960429
3440966777
3440972026
3440977397
3440982524
3440988322
3440994059
3441000224
3441006877
3441011942
3441017375
3441022440
3441028300
3441033610
3441040568
3441047038
3441052531
3441058695
3441063151
3441068095
3441074015
3441078898
3441086466
3441091715
3441096598
3441101542
3441108317
3441114725
3441119242
3441123942
3441131022
3441137736
3441142679
3441149210
3441156107
3441160746
3441167460
3441171793
3441178751
3441184671
3441190226
3441194986
3441199259
3441205790
3441210978
3441216593
3441223490
3441229166
3441235147
3441239420
3441244120
3441249491
3441255228
3441261576
3441267557
3441273111
3441279398
3441283914
3441292581
3441298746
3441305033
3441311624
3441316690
3441321756
3441328470
3441332620
3441339700
3441345438
3441349832
3441355814
3441361673
3441368021
3441373392
3441380106
3441385233
3441390237
3441395303
3441401041
3441405496
3441412698
3441417459
3441423074
3441428689
3441434183
3441437967
3441445108
3441452005
3441456521
3441462747
3441466470
3441472818
3441478189
3441484231
3441489602
3441494790
3441499917
3441504129
3441510720
3441517007
3441522256
3441527078
3441533242
3441538308
3441542703
3441550515
3441555154
3441561135
3441566629
3441572915
3441579446
3441585000
3441591165
3441599893
3441605203
3441610085
3441616555
3441622415
3441629556
3441635598
3441640359
3441645425
3441650735
3441655618
3441660134
3441666787
3441672829
3441679726
3441684182
3441689309
3441695657
3441702737
3441708230
3441712868
3441719155
3441723244
3441730446
3441737710
3441746255
3441751259
3441758278
3441763161
3441769875
3441774392
3441781289
3441786355
3441790566
3441797158
3441803200
3441809853
3441815590
3441820900
3441826882
3441832192
3441838051
3441844338
3441849892
3441855385
3441861061
3441866371
3441872536
3441877663
3441882668
3441889626
3441894264
3441901711
3441906227
3441911293
3441915871
3441922585
3441927284
3441933571
3441939980
3441945107
3441950478
3441956276
3441963112
3441968727
3441974464
3441978737
3441983742
3441989784
3441996071
3442001198
3442006752
3442012672
3442017311
3442022316
3442029640
3442037025
3442040626
3442047340
3442053566
3442063026
3442070106
3442075721
3442081886
3442087562
3442092506
3442097267
3442103798
3442109596
3442115333
3442119789
3442125648
3442130958
3442134193
3442140602
3442146583
3442151649
3442157630
3442162940
3442168189
3442171913
3442177589
3442184547
3442189430
3442195228
3442201942
3442207862
3442216407
3442223914
3442229835
3442235267
3442242774
3442247291
3442253272
3442259681
3442266029
3442270972
3442275550
3442281348
3442287147
3442293800
3442298316
3442304725
3442310645
3442315711
3442320899
3442327796
3442332129
3442337745
3442342689
3442348914
3442354041
3442360267
3442365821
3442370765
3442377540
3442382178
3442387915
3442393958
3442400977
3442406592
3442411170
3442416846
3442422461
3442427405
3442431617
3442437049
3442444312
3442450415
3442455908
3442462683
3442469214
3442474768
3442480872
3442484961
3442491675
3442496924
3442502539
3442509375
3442515234
3442520667
3442526648
3442532691
3442538306
3442544165
3442550024
3442555762
3442560583
3442566443
3442571631
3442577917
3442581946
3442588415
3442593726
3442598730
3442604468
3442612036
3442617529
3442623572
3442629370
3442633887
3442640417
3442645483
3442651953
3442657751
3442663794
3442670508
3442674536
3442681433
3442686071
3442691992
3442698278
3442703833
3442708593
3442713964
3442719519
3442725927
3442732580
3442738623
3442743872
3442749670
3442754125
3442761022
3442766699
3442771581
3442778051
3442782995
3442789343
3442795263
3442801611
3442807592
3442812536
3442819189
3442825109
3442830236
3442836401
3442840734
3442847875
3442854162
3442859655
3442865331
3442870885
3442876806
3442883520
3442888402
3442895788
3442901220
3442905187
3442912023
3442916906
3442923620
3442928991
3442936193
3442940526
3442947667
3442953588
3442959203
3442964940
3442971349
3442976354
3442981603
3442988317
3442995641
3443002477
3443008153
3443013585
3443018529
3443023717
3443030370
3443036351
3443040502
3443047093
3443053502
3443057836
3443064000
3443070226
3443076146
3443080785
3443087438
3443092687
3443098485
3443103673
3443110814
3443116185
3443122655
3443128514
3443133336
3443141515
3443147313
3443157567
3443163182
3443168675
3443174474
3443179356
3443186619
3443192662
3443197667
3443203709
3443208958
3443214451
3443219761
3443225560
3443231480
3443236424
3443243382
3443247716
3443254002
3443259984
3443266209
3443271153
3443277379
3443282750
3443289402
3443295933
3443301243
3443308567
3443316441
3443322056
3443327488
3443333836
3443340489
3443346348
3443351353
3443358189
3443362522
3443368870
3443376316
3443382054
3443388523
3443393467
3443398838
3443404209
3443412083
3443417515
3443423069
3443428562
3443433689
3443440098
3443445591
3443452122
3443456333
3443465122
3443469944
3443476292
3443482822
3443489414
3443495212
3443501926
3443507480
3443513340
3443517612
3443524082
3443529514
3443534458
3443541111
3443545505
3443551853
3443559177
3443565036
3443570835
3443575840
3443582798
3443587986
3443592441
3443601413
3443606479
3443613193
3443619724
3443626316
3443632358
3443638828
3443644504
3443650669
3443657199
3443662754
3443669040
3443674350
3443680881
3443685459
3443691928
3443696994
3443703708
3443710361
3443715976
3443721469
3443727084
3443732639
3443738315
3443744296
3443748325
3443754306
3443759738
3443765231
3443772800
3443779391
3443785434
3443790988
3443796603
3443802157
3443807773
3443813388
3443818576
3443824069
3443829989
3443835483
3443841220
3443847934
3443852817
3443858432
3443863070
3443868564
3443874057
3443878695
3443885470
3443889987
3443898227
3443903903
3443908114
3443914950
3443919039
3443926181
3443930636
3443936007
3443943026
3443948580
3443953707
3443958956
3443964083
3443969393
3443975375
3443982638
3443988314
3443994784
3444000155
3444005648
3444011080
3444016818
3444022677
3444030245
3444035250
3444040743
3444045748
3444051546
3444056918
3444063204
3444069125
3444073580
3444079684
3444085116
3444090243
3444096285
3444102022
3444108492
3444113436
3444121554
3444127962
3444135409
3444141512
3444151644
3444158236
3444165011
3444169832
3444176241
3444181673
3444187532
3444193392
3444198763
3444205416
3444209932
3444217195
3444221773
3444228731
3444233553
3444240999
3444246492
3444251985
3444257601
3444263216
3444268221
3444273226
3444280184
3444284212
3444291231
3444295381
3444300935
3444306917
3444313387
3444322237
3444326265
3444332369
3444338045
3444344148
3444349886
3444355867
3444360689
3444366975
3444373018
3444378206
3444385042
3444388948
3444395296
3444399751
3444406221
3444412202
3444417573
3444423005
3444428316
3444434724
3444442842
3444448091
3444453889
3444459382
3444465913
3444470247
3444476350
3444481416
3444488801
3444494111
3444500337
3444505769
3444511140
3444517366
3444522004
3444529389
3444534455
3444540193
3444546113
3444551423
3444556794
3444562348
3444568635
3444574372
3444580171
3444584870
3444590669
3444597016
3444602998
3444608918
3444613313
3444620271
3444624787
3444631135
3444636323
3444641877
3444649201
3444653657
3444663422
3444668183
3444675935
3444682099
3444689362
3444694489
3444699982
3444706269
3444710908
3444717927
3444724518
3444731110
3444735932
3444742463
3444747040
3444753449
3444758149
3444764801
3444770600
3444776459
3444782135
3444787690
3444790986
3444799530
3444804901
3444810517
3444815155
3444821625
3444828217
3444834198
3444839508
3444845551
3444850556
3444855072
3444861115
3444866242
3444874054
3444879364
3444884430
3444887421
3444894989
3444900910
3444906281
3444912445
3444917633
3444924286
3444929718
3444935089
3444940460
3444945953
3444953583
3444956757
3444964020
3444969635
3444974823
3444979645
3444986420
3444991547
3444995636
3445003265
3445008697
3445012787
3445018524
3445024994
3445032135
3445036651
3445042816
3445047455
3445054474
3445060394
3445065765
3445071869
3445076141
3445083038
3445087432
3445094390
3445099823
3445105987
3445112701
3445116973
3445123870
3445127838
3445134674
3445139312
3445146148
3445153167
3445158782
3445165008
3445172088
3445178192
3445183502
3445191497
3445197845
3445203826
3445212859
3445217559
3445223785
3445229156
3445235442
3445241546
3445246917
3445253204
3445258880
3445265227
3445270049
3445276824
3445282012
3445289519
3445295379
3445300750
3445306243
3445312346
3445319060
3445324187
3445331450
3445334929
3445342132
3445347442
3445353545
3445356658
3445365508
3445370086
3445375640
3445381316
3445386138
3445391936
3445397734
3445402800
3445409514
3445414519
3445418853
3445425444
3445429900
3445436309
3445441130
3445446929
3445450164
3445457488
3445460662
3445467803
3445473479
3445478728
3445483367
3445489226
3445495635
3445500151
3445505827
3445511443
3445516692
3445522246
3445526457
3445533598
3445538969
3445544585
3445550383
3445556181
3445561797
3445567229
3445572050
3445578398
3445583281
3445589567
3445594633
3445602995
3445608183
3445614104
3445626677
3445632719
3445637663
3445642912
3445648344
3445653593
3445658537
3445663664
3445668364
3445674162
3445679838
3445685514
3445690825
3445697660
3445703459
3445709745
3445716337
3445721891
3445727507
3445732878
3445738737
3445744230
3445748869
3445754545
3445760954
3445766447
3445771147
3445776701
3445780607
3445788114
3445792082
3445797147
3445803983
3445808256
3445814970
3445819791
3445824308
3445829008
3445835661
3445840971
3445846464
3445851591
3445856596
3445860685
3445867277
3445872770
3445879240
3445884489
3445888944
3445894071
3445900419
3445904447
3445911039
3445917753
3445922269
3445927762
3445933072
3445937101
3445942472
3445946622
3445953580
3445959012
3445964139
3445969938
3445975003
3445979886
3445985074
3445990506
3445995206
3446000760
3446006498
3446011197
3446015836
3446020658
3446026334
3446034635
3446042813
3446048307
3446053067
3446058682
3446063931
3446068448
3446073941
3446081082
3446085965
3446091092
3446097318
3446102445
3446107388
3446112210
3446117520
3446124173
3446129239
3446135709
3446140164
3446145352
3446151028
3446157437
3446163174
3446167752
3446173550
3446178982
3446184048
3446188504
3446196194
3446203702
3446209805
3446215664
3446221524
3446226773
3446232266
3446237271
3446243374
3446248868
3446254910
3446259671
3446264981
3446269986
3446274319
3446279812
3446285366
3446289334
3446296719
3446301968
3446307095
3446312222
3446318569
3446323880
3446329129
3446335537
3446340603
3446345852
3446350308
3446355618
3446362148
3446368008
3446373867
3446378018
3446384121
3446389431
3446395474
3446399014
3446406887
3446413052
3446418179
3446423550
3446428738
3446433865
3446439663
3446446011
3446450832
3446457363
3446462246
3446467373
3446472317
3446478420
3446484218
3446490322
3446494900
3446500454
3446506313
3446510708
3446517360
3446520351
3446528042
3446533779
3446539028
3446545315
3446550747
3446555874
3446562893
3446568813
3446573085
3446580532
3446583644
3446591152
3446596340
3446602382
3446607570
3446613063
3446618129
3446623256
3446629360
3446633144
3446639308
3446645473
3446651027
3446655300
3446661342
3446665553
3446671657
3446677150
3446683009
3446688930
3446695461
3446701808
3446708278
3446714076
3446718593
3446725856
3446730495
3446737697
3446743251
3446747218
3446753871
3446759730
3446764247
3446771205
3446778041
3446784633
3446788905
3446794887
3446800075
3446804957
3446810023
3446817225
3446822108
3446829616
3446835597
3446841273
3446846705
3446852992
3446858485
3446863917
3446868678
3446872889
3446880397
3446883387
3446890834
3446896693
3446902552
3446907618
3446913050
3446918238
3446922633
3446930201
3446935939
3446941554
3446947230
3446952174
3446957484
3446963099
3446968043
3446972743
3446980311
3446985133
3446990138
3446995936
3447001185
3447006007
3447010584
3447018824
3447025050
3447030909
3447036646
3447042139
3447048121
3447056300
3447060999
3447067408
3447072535
3447078577
3447084925
3447091456
3447097315
3447104883
3447107996
3447114039
3447121058
3447127649
3447132471
3447137903
3447142359
3447147974
3447153894
3447159144
3447166163
3447170740
3447175806
3447183802
3447190638
3447200159
3447205774
3447214075
3447220240
3447225733
3447229090
3447236597
3447243738
3447248926
3447255213
3447261255
3447266443
3447272241
3447277918
3447282861
3447290796
3447295679
3447301172
3447307275
3447312708
3447317712
3447323389
3447329370
3447334863
3447340234
3447345789
3447351465
3447357385
3447362939
3447368860
3447374475
3447379175
3447385889
3447390649
3447396448
3447401452
3447408410
3447416528
3447422326
3447428735
3447433191
3447440149
3447444360
3447450280
3447456384
3447462426
3447468408
3447473596
3447479577
3447484765
3447489404
3447496728
3447501550
3447507959
3447511254
3447518579
3447523400
3447530480
3447536279
3447541955
3447547570
3447553063
3447558557
3447564294
3447571252
3447575402
3447582360
3447586633
3447592797
3447598718
3447605004
3447609582
3447615929
3447620507
3447625939
3447630944
3447637841
3447642663
3447649987
3447653466
3447660790
3447666405
3447672021
3447677392
3447682946
3447688683
3447694359
3447700219
3447705834
3447712548
3447717187
3447725304
3447730248
3447738244
3447743493
3447750451
3447756798
3447762963
3447769005
3447774559
3447780358
3447786034
3447792443
3447798424
3447802819
3447809105
3447815514
3447820519
3447826744
3447831444
3447839012
3447842308
3447850365
3447853600
3447861229
3447864464
3447872093
3447877709
3447883324
3447888695
3447894554
3447901939
3447906029
3447912987
3447919029
3447923851
3447929893
3447935142
3447941368
3447948021
3447951317
3447958885
3447964622
3447970299
3447975670
3447983726
3447988853
3447994652
3447999901
3448006798
3448012352
3448017540
3448023216
3448028709
3448034324
3448040367
3448045860
3448050377
3448055992
3448062217
3448068016
3448073875
3448079307
3448085350
3448089500
3448095481
3448101036
3448107994
3448113182
3448120445
3448126609
3448132102
3448137657
3448143760
3448149558
3448154868
3448161155
3448164329
3448171226
3448176963
3448182517
3448188194
3448193992
3448200095
3448204734
3448211387
3448214439
3448221030
3448226890
3448232383
3448238303
3448244285
3448249534
3448255515
3448260947
3448266135
3448273704
3448277549
3448288352
3448294517
3448299888
3448306602
3448311851
3448317771
3448325461
3448330893
3448334128
3448343284
3448351035
3448359031
3448366965
3448373801
3448385031
3448395652
3448404624
3448413413
3448418051
3448433188
3448443015
3448452658
3448463156
3448473288
3448483908
3448495749
3448505942
3448514975
3448525778
3448536459
3448548056
3448559836
3448566855
3448579794
3448594809
3448603903
3448612692
3448622580
3448633932
3448643332
3448655111
3448663168
3448676168
3448685324
3448695211
3448707785
3448716757
3448728109
3448738302
3448749838
3448758627
3448770590
3448778097
3448788900
3448798483
3448811605
3448821188
3448894613
3448907430
3448920614
3448932821
3448943929
3448954366
3448963277
3448973348
3448982869
3448991841
3449001363
3449012532
3449023824
3449034017
3449045369
3449055501
3449065999
3449076375
3449089131
3449098348
3449108846
3449119038
3449128133
3449138570
3449148091
3449156880
3449166279
3449176716
3449184895
3449195942
3449203877
3449215718
3449226399
3449235066
3449245503
3449255635
3449264363
3449272358
3449284565
3449295369
3449303974
3449312336
3449322285
3449331867
3449342854
3449355366
3449361286
3449372151
3449381733
3449391499
3449399311
3449412189
3449424824
3449435322
3449444355
3449456867
3449464435
3449478229
3449486896
3449496296
3449507465
3449515095
3449527607
3449536579
3449544513
3449553974
3449563678
3449575092
3449586017
3449595966
3449606952
3449619403
3449628375
3449640155
3449648883
3449657550
3449668659
3449676776
3449690814
3449699847
3449709430
3449720843
3449730548
3449738727
3449750690
3449760699
3449769916
3449779193
3449788898
3449801959
3449809527
3449822040
3449831012
3449840350
3449852191
3449864276
3449872332
3449885943
3449900958
3449916339
3449924029
3449936419
3449947772
3449957598
3449966998
3449977740
3449985980
3449999957
3450010516
3450019793
3450031756
3450040179
3450052203
3450061419
3450073809
3450084612
3450094866
3450103777
3450113848
3450123980
3450137346
3450146929
3450158220
3450166155
3450179338
3450188555
3450197832
3450208696
3450219866
3450229082
3450237993
3450252153
3450258928
3450273088
3450283708
3450293291
3450303484
3450313310
3450325578
3450334184
3450341692
3450354753
3450363908
3450372880
3450383684
3450398027
3450407731
3450419084
3450430253
3450440446
3450453447
3450461198
3450474198
3450484208
3450494279
3450505815
3450517167
3450525651
3450536576
3450548478
3450558366
3450569108
3450580216
3450588883
3450601029
3450610673
3450619401
3450630387
3450640153
3450650590
3450661576
3450672867
3450681840
3450690995
3450702286
3450713944
3450723465
3450736832
3450745682
3450757523
3450769303
3450779007
3450791214
3450800553
3450808121
3450821121
3450831192
3450840225
3450851273
3450861221
3450872879
3450884781
3450895462
3450904678
3450914993
3450927628
3450937210
3450949112
3450956375
3450967178
3450979568
3450989700
3451001236
3451009475
3451018753
3451029617
3451039566
3451051162
3451060562
3451072769
3451082534
3451093276
3451103958
3451113845
3451124465
3451133499
3451145156
3451154250
3451164504
3451175674
3451184951
3451193618
3451206374
3451216933
3451226394
3451234389
3451245864
3451253432
3451265456
3451277968
3451286452
3451298537
3451307692
3451317397
3451327224
3451336440
3451346999
3451357741
3451364455
3451375808
3451388564
3451398085
3451409255
3451418837
3451427931
3451438674
3451447585
3451459364
3451471510
3451480727
3451492445
3451501173
3451509718
3451522780
3451529677
3451544081
3451558546
3451567946
3451575392
3451586806
3451598463
3451607252
3451617689
3451626356
3451636427
3451645521
3451656446
3451666883
3451676832
3451690748
3451701002
3451709120
3451722914
3451735182
3451746412
3451754225
3451768263
3451779188
3451788221
3451801588
3451810926
3451820509
3451830091
3451840101
3451852064
3451861890
3451870679
3451882032
3451890577
3451902784
3451914197
3451924207
3451935315
3451943616
3451954724
3451963880
3451973889
3451985364
3451995252
3452004163
3452013074
3452023206
3452034009
3452044507
3452055798
3452067151
3452074414
3452085645
3452094373
3452106702
3452116223
3452125745
3452136609
3452147107
3452156384
3452166333
3452176465
3452186719
3452197888
3452206677
3452217236
3452227368
3452237133
3452245373
3452258679
3452268139
3452277478
3452289074
3452299633
3452308789
3452319958
3452330334
3452341564
3452351330
3452365002
3452374462
3452384960
3452398083
3452409496
3452420116
3452429394
3452438671
3452446300
3452460033
3452470226
3452480602
3452491283
3452501110
3452509777
3452519787
3452533031
3452541515
3452553600
3452560436
3452573680
3452584484
3452594005
3452604320
3452611644
3452623119
3452632579
3452645030
3452654002
3452662425
3452676463
3452687206
3452698558
3452708507
3452720103
3452729686
3452741466
3452753001
3452760570
3452773753
3452784434
3452794932
3452807139
3452816478
3452827037
3452834971
3452846263
3452858226
3452868296
3452877818
3452888194
3452895152
3452908152
3452916880
3452925547
3452937449
3452945445
3452958872
3452967905
3452976328
3452987376
3452995005
3453004710
3453016367
3453025645
3453036387
3453045786
3453059092
3453069956
3453080210
3453089365
3453097544
3453111338
3453121714
3453129038
3453143198
3453152903
3453164194
3453173044
3453180673
3453198984
3453210031
3453220529
3453229563
3453240854
3453250009
3453262949
3453272226
3453284128
3453292978
3453301523
3453312997
3453325326
3453337656
3453346994
3453357797
3453369089
3453380197
3453390573
3453398385
3453411081
3453419687
3453429635
3453439462
3453449594
3453459970
3453471444
3453482431
3453491464
3453503427
3453512033
3453523446
3453534371
3453543343
3453553475
3453563485
3453575936
3453584481
3453594369
3453606210
3453616585
3453625191
3453636178
3453646371
3453658639
3453669625
3453678780
3453690499
3453700997
3453710396
3453722481
3453730050
3453742501
3453751717
3453763802
3453774788
3453784615
3453793160
3453803841
3453813179
3453825386
3453836922
3453846260
3453856453
3453867622
3453876717
3453887520
3453897469
3453908943
3453915779
3453931221
3453940071
3453951362
3453963447
3453973701
3453983955
3453993843
3454005928
3454017463
3454031562
3454049507
3454062507
3454075813
3454084053
3454096748
3454107368
3454118110
3454131843
3454141120
3454150398
3454162360
3454170478
3454182380
3454188361
3454200446
3454212409
3454219184
3454233954
3454244758
3454251227
3454263312
3454273627
3454282905
3454294440
3454302131
3454311835
3454319770
3454334845
3454345404
3454353583
3454366034
3454377082
3454385504
3454396613
3454405280
3454417914
3454430060
3454438971
3454448493
3454460028
3454467780
3454478217
3454490912
3454497198
3454510565
3454520575
3454534125
3454543768
3454551214
3454564215
3454573370
3454583136
3454593939
3454602850
3454612738
3454623480
3454632269
3454643682
3454652594
3454662847
3454674688
3454685613
3454696478
3454706060
3454717474
3454728277
3454739629
3454749334
3454759100
3454770086
3454779729
3454790227
3454797918
3454812078
3454821233
3454831121
3454843877
3454852300
3454861944
3454873235
3454880376
3454893499
3454906438
3454913335
3454927373
3454938604
3454950505
3454958440
3454969731
3454979253
3454990788
3455000127
3455008245
3455019902
3455026555
3455039616
3455048894
3455058049
3455068913
3455078557
3455088933
3455097966
3455107487
3455117863
3455126836
3455135747
3455147648
3455157292
3455171818
3455180363
3455190373
3455200993
3455210209
3455221684
3455230534
3455239933
3455249150
3455257145
3455269352
3455281010
3455290104
3455299687
3455310734
3455319950
3455330448
3455342167
3455350285
3455359562
3455368717
3455381901
3455390324
3455402286
3455410526
3455420597
3455430424
3455443607
3455453495
3455462894
3455470402
3455483280
3455492252
3455502384
3455512027
3455520023
3455531437
3455542118
3455551273
3455562992
3455570255
3455582828
3455591800
3455602115
3455613223
3455623538
3455632266
3455644901
3455653201
3455667667
3455678409
3455685733
3455696658
3455710635
3455720218
3455732913
3455744449
3455755191
3455765506
3455774173
3455786319
3455798892
3455808657
3455819888
3455830020
3455837954
3455849612
3455858462
3455865847
3455874697
3455882449
3455893374
3455903811
3455911563
3455921999
3455931521
3455940127
3455951540
3455961428
3455971987
3455983767
3455991946
3456004031
3456010989
3456022341
3456028872
3456040102
3456049318
3456057863
3456068178
3456076662
3456085146
3456094179
3456102968
3456110659
3456124819
3456131838
3456141481
3456149477
3456159120
3456169985
3456179628
3456187685
3456194704
3456205629
3456215212
3456226198
3456234804
3456243959
3456255983
3456261110
3456275636
3456283754
3456293520
3456305238
3456314271
3456323427
3456333681
3456342409
3456352601
3456361329
3456370302
3456378907
3456388795
3456394777
3456406434
3456416444
3456424562
3456432130
3456441651
3456450624
3456457154
3456468385
3456473390
3456485719
3456496156
3456505494
3456515931
3456523438
3456537293
3456546204
3456556214
3456564576
3456574036
3456584107
3456591553
3456603089
3456611390
3456620850
3456628907
3456639100
3456650330
3456657166
3456666199
3456674317
3456686707
3456691407
3456703064
3456712647
3456722046
3456732300
3456742615
3456751831
3456763794
3456772522
3456786682
3456795227
3456805054
3456814514
3456822449
3456833191
3456841309
3456849670
3456859375
3456869019
3456877930
3456887817
3456897522
3456908752
3456919800
3456930664
3456941955
3456949035
3456958984
3456967224
3456975525
3456989929
3456995117
3457005432
3457016296
3457026062
3457036621
3457045105
3457057312
3457067565
3457073791
3457087341
3457095275
3457107482
3457116332
3457124450
3457135619
3457145019
3457153869
3457163451
3457171874
3457182616
3457191100
3457203429
3457211486
3457221129
3457232177
3457241576
3457251403
3457261229
3457270202
3457279418
3457288512
3457300475
3457307311
3457318908
3457328856
3457338256
3457347045
3457356322
3457367552
3457377135
3457385802
3457396422
3457404784
3457417906
3457425536
3457437865
3457446288
3457453673
3457467284
3457478941
3457488829
3457497435
3457506163
3457520323
3457528563
3457539549
3457546141
3457554503
3457568541
3457577025
3457588926
3457598021
3457606199
3457619261
3457630613
3457639219
3457649351
3457658567
3457667356
3457679075
3457687193
3457696592
3457708128
3457717588
3457727415
3457735838
3457745237
3457753538
3457763975
3457772581
3457782468
3457789548
3457800291
3457806150
3457817625
3457829221
3457838437
3457846555
3457856687
3457867368
3457875669
3457885679
3457897153
3457906980
3457916867
3457927671
3457937558
3457947446
3457957944
3457970151
3457980283
3457986569
3458000791
3458008725
3458017819
3458026914
3458037228
3458048154
3458058896
3458067380
3458075558
3458085446
3458096005
3458107541
3458115964
3458125485
3458134762
3458145382
3458151364
3458159359
3458166745
3458176205
3458184628
3458194333
3458206479
3458213070
3458220700
3458227841
3458235836
3458245297
3458252621
3458264096
3458268734
3458280697
3458291500
3458300106
3458310604
3458318050
3458328060
3458332760
3458346981
3458354733
3458363644
3458375057
3458382137
3458393368
3458402462
3458412227
3458422481
3458430050
3458442074
3458449215
3458459713
3458469722
3458480770
3458488948
3458496334
3458508480
3458515865
3458527889
3458537593
3458547481
3458558589
3458566951
3458578792
3458588619
3458597103
3458605586
3458615657
3458624141
3458633357
3458642329
3458651912
3458660396
3458671626
3458680415
3458689326
3458696467
3458706050
3458715449
3458725825
3458740657
3458749507
3458761714
3458771174
3458780635
3458789912
3458796321
3458810481
3458819636
3458828181
3458836970
3458844294
3458852656
3458859858
3458870844
3458882990
3458889399
3458899531
3458909174
3458918147
3458925410
3458935542
3458945490
3458954951
3458964289
3458975153
3458985529
3458993220
3459008173
3459017878
3459027338
3459037836
3459045527
3459058893
3459068964
3459080683
3459090448
3459099298
3459108759
3459118158
3459125055
3459138239
3459147394
3459157587
3459165705
3459174005
3459183466
3459190485
3459204279
3459212640
3459223444
3459234796
3459242548
3459254144
3459262323
3459274103
3459283075
3459291131
3459302972
3459312677
3459320978
3459330743
3459340814
3459350580
3459359369
3459370904
3459381219
3459389825
3459400994
3459412347
3459421258
3459432977
3459442498
3459454034
3459461541
3459472283
3459485284
3459493585
3459503350
3459512383
3459524590
3459531304
3459541436
3459553582
3459560601
3459574395
3459581963
3459590447
3459604729
3459613213
3459622674
3459632927
3459642937
3459652520
3459661065
3459672173
3459683098
3459691643
3459701409
3459710137
3459719597
3459729485
3459739617
3459750481
3459758415
3459769585
3459776238
3459787407
3459794243
3459807793
3459818840
3459826042
3459836174
3459846733
3459854973
3459862541
3459873161
3459883476
3459893425
3459903801
3459914299
3459923881
3459931144
3459940788
3459951591
3459958488
3459968864
3459976982
3459988212
3459996879
3460008110
3460019584
3460028495
3460037651
3460047843
3460055839
3460066337
3460079765
3460088432
3460098197
3460104606
3460118522
3460126579
3460135062
3460146110
3460152213
3460164420
3460170280
3460177360
3460183524
3460195487
3460204703
3460213065
3460223136
3460230277
3460240592
3460250663
3460258902
3460269339
3460278861
3460288688
3460294303
3460306693
3460317252
3460326590
3460336966
3460347647
3460355399
3460366873
3460385367
3460394583
3460405081
3460415640
3460424918
3460433340
3460441885
3460452505
3460462698
3460471854
3460483023
3460490774
3460500418
3460507132
3460519339
3460528677
3460541128
3460549368
3460558218
3460569143
3460577261
3460587271
3460599905
3460607412
3460619375
3460626455
3460639028
3460651846
3460660269
3460673147
3460684744
3460692434
3460705190
3460715994
3460723074
3460734853
3460747182
3460757253
3460766286
3460773183
3460783376
3460795156
3460801320
3460812673
3460821584
3460831045
3460841787
3460850148
3460860952
3460871267
3460882863
3460887990
3460902517
3460910268
3460923146
3460932241
3460938710
3460951222
3460960561
3460970998
3460980458
3460988454
3461001393
3461010121
3461019582
3461027577
3461037526
3461048817
3461054555
3461067494
3461075551
3461084889
3461092335
3461102528
3461112782
3461122609
3461130909
3461140858
3461150685
3461161183
3461169239
3461179432
3461189503
3461198109
3461212025
3461223683
3461232044
3461239857
3461249745
3461261524
3461270191
3461278980
3461285450
3461296253
3461306812
3461315601
3461324390
3461333851
3461343616
3461351124
3461363758
3461374744
3461384022
3461395313
3461403004
3461415027
3461423939
3461434009
3461443531
3461455921
3461468189
3461480335
3461487842
3461499988
3461508289
3461519397
3461528186
3461538074
3461546924
3461558521
3461566638
3461578113
3461586841
3461595264
3461604846
3461616321
3461621082
3461634692
3461644336
3461653247
3461663867
3461671069
3461680713
3461688769
3461699634
3461708240
3461719775
3461727710
3461737780
3461746447
3461757495
3461766772
3461776782
3461786120
3461796618
3461804309
3461814074
3461822375
3461831530
3461843127
3461849475
3461860400
3461871203
3461880786
3461889269
3461899828
3461905749
3461920885
3461931811
3461939257
3461950365
3461960741
3461968798
3461982043
3461991747
3462002611
3462010668
3462018664
3462029894
3462039477
3462051073
3462058764
3462068407
3462077074
3462085680
3462096910
3462105822
3462113573
3462120714
3462133226
3462141222
3462150011
3462159838
3462169420
3462179552
3462187792
3462198045
3462205492
3462216722
3462224229
3462235704
3462243822
3462255235
3462264574
3462276414
3462284837
3462294908
3462303026
3462315233
3462322252
3462335435
3462345384
3462354112
3462366075
3462373277
3462384507
3462393174
3462403184
3462409959
3462420823
3462431748
3462439317
3462452317
3462463304
3462474595
3462481858
3462489427
3462504258
3462511338
3462521531
3462531907
3462539902
3462549729
3462560044
3462569382
3462578477
3462586960
3462598862
3462606858
3462618455
3462627366
3462636704
3462644822
3462652390
3462665329
3462674912
3462684250
3462694199
3462703171
3462711350
3462721421
3462730759
3462741013
3462749375
3462758408
3462768723
3462779709
3462788986
3462800156
3462810288
3462817307
3462828110
3462838364
3462851120
3462860214
3462870895
3462878647
3462889023
3462897201
3462909103
3462919113
3462929367
3462939071
3462947372
3462958664
3462966903
3462977890
3462984848
3462997726
3463007736
3463016769
3463025619
3463035263
3463046188
3463055526
3463064865
3463075729
3463086044
3463096542
3463102767
3463117110
3463131149
3463142135
3463151717
3463163436
3463173629
3463181930
3463192855
3463203109
3463211349
3463222335
3463231185
3463242598
3463252913
3463261519
3463271468
3463278304
3463291732
3463296126
3463312667
3463321883
3463332564
3463341963
3463350875
3463359603
3463371687
3463379927
3463391829
3463399703
3463410078
3463418990
3463426375
3463439436
3463449446
3463460188
3463470686
3463478682
3463489668
3463499129
3463507185
3463519270
3463526289
3463538618
3463549727
3463557295
3463567366
3463575911
3463587507
3463596418
3463605451
3463613508
3463622663
3463631941
3463641950
3463652265
3463659529
3463671980
3463679670
3463690229
3463708479
3463717390
3463726850
3463736127
3463747114
3463756208
3463766767
3463775800
3463786786
3463795148
3463803693
3463812177
3463821271
3463831464
3463842206
3463851606
3463860212
3463872235
3463880780
3463890912
3463901410
3463913495
3463923688
3463932111
3463939435
3463950971
3463959760
3463969464
3463977887
3463987531
3463997846
3464009686
3464018292
3464025922
3464037640
3464046979
3464055768
3464064984
3464074933
3464084027
3464091473
3464102215
3464113141
3464122662
3464132367
3464140851
3464149456
3464157452
3464170514
3464177838
3464188153
3464196575
3464208294
3464215435
3464225018
3464235455
3464243694
3464255291
3464264324
3464273846
3464282147
3464289898
3464299419
3464309856
3464319927
3464325970
3464338360
3464349224
3464356975
3464369121
3464379619
3464388470
3464396648
3464405987
3464416851
3464425274
3464437908
3464444256
3464455181
3464466289
3464472454
3464484844
3464491741
3464503154
3464512554
3464521465
3464532207
3464541545
3464549907
3464558513
3464570232
3464577739
3464587505
3464596660
3464606914
3464621257
3464628947
3464639934
3464649333
3464656596
3464669292
3464676005
3464684062
3464694865
3464704509
3464714030
3464722270
3464731852
3464745097
3464754557
3464767558
3464776713
3464785380
3464794474
3464802653
3464812663
3464818644
3464829630
3464840495
3464848857
3464858256
3464868388
3464877238
3464885905
3464898356
3464909159
3464917887
3464929362
3464936503
3464948527
3464959391
3464967692
3464978617
3464988871
3464997599
3465009806
3465018168
3465027201
3465034159
3465046671
3465055826
3465064981
3465075541
3465082254
3465093424
3465102701
3465114664
3465121805
3465133280
3465144815
3465153299
3465165079
3465174112
3465184183
3465192911
3465202310
3465213480
3465222208
3465231424
3465241006
3465250650
3465259012
3465270853
3465279092
3465291421
3465302713
3465311929
3465324136
3465329446
3465342141
3465350198
3465362588
3465373391
3465381204
3465386880
3465392678
3465401712
3465408242
3465419656
3465430459
3465440713
3465450295
3465455422
3465468789
3465473672
3465487222
3465493691
3465503640
3465514260
3465521889
3465532143
3465539834
3465551736
3465560525
3465569314
3465579507
3465588967
3465598427
3465607155
3465619729
3465631630
3465640542
3465650246
3465661049
3465669899
3465679116
3465688820
3465699868
3465710366
3465719277
3465727577
3465736855
3465745949
3465758522
3465766884
3465775978
3465785255
3465793739
3465802711
3465813210
3465820900
3465831764
3465839210
3465851051
3465860268
3465869911
3465878883
3465889625
3465897682
3465905250
3465915382
3465923378
3465935035
3465944557
3465955787
3465966774
3465976966
3465988075
3465999305
3466007484
3466019081
3466031593
3466040077
3466051246
3466058326
3466069618
3466080360
3466089759
3466098426
3466108375
3466116798
3466124915
3466134498
3466145118
3466153174
3466164222
3466175147
3466184913
3466192664
3466203589
3466214332
3466223304
3466233313
3466239600
3466251441
3466258277
3466266639
3466273902
3466286719
3466295264
3466303260
3466313086
3466324866
3466334326
3466341223
3466355200
3466366553
3466373145
3466384619
3466393408
3466402930
3466409766
3466422339
3466433081
3466443457
3466453467
3466462378
3466475012
3466483496
3466491797
3466502905
3466512915
3466522802
3466536352
3466544409
3466560095
3466569372
3466579138
3466591772
3466601110
3466610754
3466620947
3466629614
3466643286
3466652258
3466662512
3466671240
3466681066
3466690038
3466701452
3466709203
3466720434
3466729955
3466741064
3466750097
3466758153
3466769018
3466777685
3466787877
3466795385
3466808385
3466820592
3466831701
3466841405
3466846105
3466858312
3466869664
3466878636
3466887853
3466895543
3466908238
3466916234
3466927220
3466940709
3466951451
3466962193
3466975499
3466985204
3466994237
3467003575
3467012181
3467024937
3467036168
3467045201
3467055272
3467064915
3467076207
3467087071
3467096531
3467105809
3467115513
3467126439
3467136143
3467144566
3467154148
3467162449
3467175511
3467183934
3467193516
3467204502
3467213780
3467225315
3467230259
3467243931
3467253819
3467264134
3467274448
3467283176
3467292515
3467302586
3467313877
3467324436
3467334263
3467343479
3467353855
3467362278
3467372043
3467382053
3467392917
3467402073
3467412143
3467421421
3467430515
3467439548
3467449436
3467460056
3467471042
3467479648
3467491916
3467499790
3467510898
3467522983
3467528964
3467538669
3467548312
3467557224
3467564487
3467572726
3467575473
3467581943
3467584689
3467591342
3467597202
3467600986
3467607700
3467612582
3467616611
3467621371
3467627536
3467632480
3467636996
3467642245
3467647616
3467651584
3467656955
3467661960
3467667087
3467671969
3467676547
3467681552
3467686923
3467691745
3467696628
3467701571
3467705295
3467709689
3467713351
3467718051
3467723971
3467727450
3467732577
3467736544
3467743563
3467748507
3467756137
3467764132
3467768405
3467773226
3467777743
3467781466
3467786410
3467790072
3467794772
3467798800
3467803927
3467807772
3467813937
3467816683
3467823336
3467828707
3467833529
3467838656
3467843356
3467848422
3467854159
3467859347
3467862643
3467869845
3467875033
3467880099
3467884737
3467890902
3467897616
3467902743
3467907015
3467913424
3467918612
3467924837
3467933199
3467939730
3467949679
3467954073
3467964876
3467969332
3467978914
3467987520
3467995272
3468003450
3468009493
3468016634
3468023287
3468033052
3468037569
3468047152
3468055330
3468062532
3468066683
3468077791
3468086702
3468092562
3468101290
3468106722
3468115145
3468120577
3468128145
3468136446
3468147005
3468153780
3468164278
3468173555
3468180635
3468186433
3468199617
3468209016
3468217866
3468225130
3468232454
3468237092
3468246858
3468250825
3468260591
3468270112
3468275850
3468282686
3468289888
3468297822
3468303376
3468311250
3468319612
3468329072
3468335786
3468342500
3468350373
3468357392
3468364167
3468373017
3468379487
3468388581
3468397065
3468404145
3468411042
3468418183
3468424592
3468432343
3468440644
3468447358
3468457246
3468463227
3468471650
3468480378
3468487214
3468497529
3468505891
3468512238
3468521638
3468527863
3468537446
3468543183
3468552216
3468559357
3468569855
3468577057
3468586884
3468591218
3468600434
3468604706
3468612763
3468618500
3468623810
3468628205
3468634003
3468638153
3468642731
3468647614
3468652192
3468656891
3468661103
3468665863
3468671479
3468677033
3468680939
3468685944
3468690460
3468694794
3468699738
3468703522
3468708466
3468712372
3468717743
3468723602
3468729706
3468733063
3468739105
3468744843
3468749725
3468753998
3468758942
3468762787
3468766327
3468771454
3468774078
3468780792
3468786469
3468791412
3468795563
3468799530
3468805267
3468810821
3468815582
3468819794
3468825775
3468830536
3468834503
3468839935
3468844391
3468848968
3468854400
3468859772
3468865204
3468870147
3468875213
3468879303
3468884186
3468888641
3468895294
3468900970
3468905731
3468911163
3468917267
3468926361
3468929412
3468936370
3468942962
3468949371
3468954681
3468960479
3468965179
3468969329
3468974761
3468981475
3468986175
3468991790
3468996612
3469001617
3469005950
3469011321
3469013275
3469022979
3469029022
3469033477
3469040069
3469044524
3469050079
3469056548
3469061187
3469067779
3469073089
3469079131
3469084319
3469090606
3469095794
3469101165
3469106414
3469112701
3469118682
3469124724
3469129302
3469134124
3469140105
3469144134
3469150054
3469154754
3469162810
3469167754
3469173675
3469178191
3469183867
3469188994
3469192962
3469198394
3469203887
3469209441
3469215056
3469219451
3469225310
3469230864
3469234832
3469237883
3469245452
3469251189
3469255461
3469261016
3469266875
3469270293
3469276763
3469281462
3469287810
3469293242
3469299956
3469305022
3469310210
3469315154
3469320281
3469324553
3469330473
3469336516
3469343230
3469347807
3469353423
3469359953
3469364836
3469370818
3469374175
3469381133
3469387785
3469394743
3469398100
3469404143
3469410246
3469414275
3469420683
3469426359
3469431242
3469436247
3469442351
3469447844
3469452238
3469458342
3469462858
3469467863
3469474272
3469480742
3469487578
3469493864
3469498320
3469502653
3469508818
3469514738
3469519865
3469526030
3469531157
3469537260
3469542326
3469547209
3469550627
3469558195
3469563810
3469568449
3469573576
3469579557
3469584135
3469589689
3469595915
3469600675
3469604948
3469611051
3469615995
3469623502
3469628324
3469633695
3469640409
3469646452
3469653288
3469660490
3469668607
3469674711
3469682462
3469689787
3469695097
3469700956
3469708829
3469713773
3469720853
3469725248
3469731290
3469735990
3469742582
3469747709
3469753080
3469759061
3469764921
3469771818
3469777799
3469782255
3469787504
3469792020
3469796964
3469801542
3469807950
3469813321
3469820462
3469825040
3469831266
3469835782
3469841336
3469845609
3469850309
3469856534
3469861844
3469867887
3469874112
3469878690
3469883084
3469889615
3469893888
3469899991
3469905972
3469913846
3469918790
3469924405
3469929044
3469935086
3469941373
3469944913
3469951871
3469957730
3469962979
3469967801
3469973904
3469978421
3469984647
3469988919
3469995206
3470000394
3470008023
3470014432
3470019986
3470024930
3470031216
3470035489
3470038968
3470047452
3470053250
3470057644
3470061062
3470068509
3470074551
3470079983
3470084927
3470091580
3470097256
3470102749
3470107510
3470113736
3470118557
3470124051
3470128323
3470134793
3470140103
3470146084
3470153042
3470159329
3470164456
3470172207
3470177822
3470183316
3470190701
3470197231
3470202358
3470208401
3470215298
3470219326
3470227688
3470233486
3470239651
3470245754
3470251736
3470258144
3470264065
3470268826
3470276211
3470281460
3470287441
3470293362
3470300014
3470306118
3470311184
3470316982
3470320339
3470327236
3470332241
3470337917
3470344143
3470351528
3470356472
3470362087
3470366970
3470371303
3470377285
3470383144
3470388027
3470393947
3470400234
3470404812
3470410549
3470413906
3470420070
3470424831
3470430935
3470437343
3470443325
3470448146
3470453578
3470458095
3470464565
3470469326
3470474514
3470482143
3470487758
3470494167
3470496120
3470505458
3470509426
3470516933
3470520290
3470525966
3470531703
3470539638
3470544582
3470549709
3470556178
3470561244
3470566737
3470572414
3470578883
3470584438
3470591457
3470596400
3470601161
3470608180
3470613978
3470618800
3470623622
3470630641
3470635463
3470638942
3470646388
3470649806
3470657191
3470662013
3470667323
3470673732
3470680507
3470687770
3470693019
3470697230
3470703700
3470708339
3470716029
3470722255
3470728114
3470732631
3470738368
3470744532
3470750453
3470755397
3470760829
3470768580
3470773890
3470780909
3470786036
3470790980
3470797145
3470801966
3470805689
3470812708
3470818629
3470826197
3470831507
3470836451
3470843287
3470847804
3470854334
3470856471
3470865504
3470872828
3470883265
3470888819
3470894190
3470901697
3470905909
3470911402
3470918787
3470925074
3470930018
3470935999
3470940394
3470946375
3470950892
3470956995
3470962366
3470969874
3470975184
3470980005
3470984705
3470991053
3470995752
3470999964
3471005457
3471012903
3471019251
3471025415
3471030481
3471036158
3471040552
3471046472
3471049890
3471056848
3471062525
3471067835
3471072901
3471078455
3471083582
3471089380
3471093714
3471100122
3471104883
3471111109
3471121973
3471126856
3471130823
3471141565
3471146448
3471153772
3471159265
3471165369
3471170435
3471176172
3471180505
3471186975
3471191370
3471197778
3471203638
3471209619
3471216333
3471222497
3471228113
3471236902
3471242944
3471249231
3471258020
3471264734
3471269800
3471276880
3471282495
3471289453
3471297754
3471303796
3471310205
3471315881
3471322290
3471327356
3471333093
3471337182
3471343225
3471346521
3471353479
3471359887
3471367639
3471373254
3471377770
3471382531
3471389245
3471394433
3471399926
3471405541
3471410912
3471417199
3471422509
3471426782
3471432763
3471438805
3471443810
3471448937
3471456811
3471461510
3471467126
3471473901
3471477624
3471486230
3471492028
3471497216
3471503319
3471510461
3471514977
3471522179
3471528344
3471533044
3471537865
3471544091
3471550133
3471558190
3471562035
3471569054
3471573876
3471579003
3471583458
3471590233
3471596642
3471602379
3471606713
3471613182
3471619347
3471624962
3471631615
3471637841
3471644493
3471650902
3471656884
3471664086
3471671166
3471677025
3471682213
3471688927
3471695030
3471701805
3471708336
3471712792
3471719200
3471724693
3471729576
3471734703
3471742577
3471747093
3471753990
3471758751
3471765160
3471771507
3471775658
3471782005
3471786705
3471792381
3471798363
3471804283
3471811058
3471816185
3471823875
3471829429
3471837242
3471842796
3471849266
3471855675
3471860740
3471867454
3471873802
3471880272
3471885704
3471894432
3471900596
3471906211
3471912376
3471918052
3471923057
3471929710
3471934654
3471940330
3471945335
3471951316
3471957542
3471962059
3471967796
3471973228
3471978111
3471984275
3471988853
3471994834
3472000938
3472004478
3472012046
3472015464
3472023277
3472028526
3472033469
3472041892
3472047446
3472051902
3472057761
3472062156
3472068931
3472073447
3472079551
3472085838
3472092612
3472100547
3472105674
3472110129
3472116965
3472123008
3472127463
3472133994
3472140647
3472145408
3472150413
3472156333
