3252847934
3252852756
3252858066
3252862766
3252867893
3252873142
3252878879
3252883518
3252887912
3252892795
3252897983
3252904087
3252909641
3252914463
3252921298
3252926425
3252932834
3252939365
3252944248
3252955295
3252961826
3252968295
3252974887
3252980258
3252986606
3252993381
3253000888
3253006992
3253013644
3253019809
3253026950
3253034213
3253040988
3253049289
3253055453
3253062839
3253069552
3253076083
3253084323
3253093173
3253100986
3253111178
3253118075
3253126010
3253133883
3253140536
3253149020
3253156710
3253165377
3253171908
3253178744
3253186557
3253194552
3253201327
3253208834
3253215365
3253224093
3253231478
3253239596
3253245028
3253254794
3253261691
3253269686
3253277987
3253285372
3253291598
3253299777
3253306429
3253316439
3253322726
3253331148
3253337496
3253345248
3253352633
3253359957
3253368319
3253375948
3253384371
3253391512
3253399203
3253405062
3253413790
3253423006
3253429476
3253436373
3253443941
3253451754
3253458590
3253467073
3253474459
3253483065
3253490084
3253496126
3253504183
3253511812
3253521334
3253529512
3253536043
3253546419
3253552950
3253562410
3253568453
3253577669
3253584688
3253592806
3253599336
3253607332
3253613557
3253621065
3253626558
3253635957
3253643159
3253650728
3253657258
3253662263
3253672700
3253678316
3253688997
3253696260
3253701265
3253709504
3253716279
3253722749
3253727754
3253737214
3253745820
3253752595
3253757722
3253765596
3253771211
3253779328
3253784516
3253793733
3253800508
3253808381
3253817658
3253825654
3253833100
3253841157
3253850434
3253856782
3253865205
3253873139
3253881440
3253888764
3253896821
3253904633
3253913483
3253921601
3253929108
3253937287
3253945344
3253954072
3253962250
3253969208
3253977997
3253983918
3253992768
3254000153
3254008088
3254013520
3254021821
3254029572
3254036652
3254043610
3254051423
3254058197
3254064911
3254074067
3254081269
3254089630
3254097809
3254105561
3254112763
3254120636
3254129425
3254136383
3254143463
3254149628
3254157745
3254164703
3254170746
3254176422
3254186005
3254192780
3254200714
3254210968
3254221771
3254230011
3254238800
3254245026
3254254364
3254262482
3254271515
3254278656
3254285187
3254292084
3254300567
3254308441
3254314239
3254321991
3254329376
3254337982
3254344268
3254351104
3254360382
3254367279
3254374664
3254382476
3254389190
3254394561
3254402862
3254412017
3254418853
3254426177
3254434905
3254441985
3254448211
3254454254
3254463165
3254470916
3254478484
3254486968
3254492706
3254499969
3254509856
3254516082
3254523467
3254530975
3254539764
3254547454
3254555694
3254565276
3254573516
3254581450
3254588042
3254595855
3254602263
3254612517
3254620208
3254626861
3254634734
3254640654
3254649627
3254655852
3254663482
3254671538
3254679595
3254687957
3254693999
3254701689
3254710967
3254718291
3254725615
3254732268
3254741118
3254747222
3254755400
3254764311
3254772246
3254779204
3254787871
3254794402
3254802519
3254810576
3254817961
3254826384
3254833952
3254841826
3254848295
3254855437
3254864409
3254871550
3254880095
3254886931
3254896452
3254901884
3254911223
3254919157
3254929350
3254936552
3254943876
3254951506
3254958525
3254966825
3254973722
3254980802
3254989164
3254996916
3255004911
3255012297
3255020475
3255028532
3255037748
3255045683
3255052885
3255058439
3255066557
3255073881
3255082121
3255090177
3255095548
3255104398
3255112150
3255119535
3255127775
3255133390
3255137968
3255145597
3255152067
3255158597
3255164945
3255169462
3255178983
3255183988
3255192045
3255198392
3255204069
3255210172
3255215970
3255222196
3255227933
3255233854
3255241056
3255247586
3255255094
3255260892
3255268216
3255273709
3255278958
3255284330
3255292569
3255298368
3255302945
3255309232
3255316068
3255320523
3255327237
3255333890
3255339627
3255344815
3255351346
3255356656
3255362760
3255368131
3255373624
3255379849
3255384549
3255391202
3255397183
3255401883
3255408536
3255412991
3255419034
3255423795
3255430875
3255437344
3255442410
3255448086
3255454007
3255458401
3255465603
3255470791
3255476163
3255481839
3255487881
3255495328
3255499783
3255507229
3255512417
3255520230
3255526394
3255532620
3255538662
3255544217
3255550869
3255556607
3255561856
3255567471
3255574185
3255578823
3255585537
3255589810
3255596585
3255601956
3255608608
3255613980
3255618252
3255626248
3255631619
3255636990
3255642361
3255647610
3255653469
3255658718
3255663967
3255670437
3255676418
3255682827
3255687099
3255693447
3255699978
3255704067
3255711147
3255716640
3255723965
3255732265
3255737087
3255742641
3255748928
3255753322
3255759365
3255764431
3255770656
3255775844
3255781826
3255788051
3255792202
3255798916
3255804958
3255811184
3255816921
3255822109
3255828273
3255833583
3255839504
3255844631
3255849819
3255857326
3255862270
3255868312
3255875148
3255879482
3255884975
3255891078
3255898891
3255903285
3255909755
3255915309
3255920680
3255926540
3255931850
3255936855
3255943446
3255949306
3255953945
3255959438
3255965419
3255969997
3255975856
3255982387
3255990077
3255996364
3256002956
3256008937
3256014430
3256019008
3256026454
3256031764
3256038478
3256044520
3256054469
3256060573
3256067348
3256073207
3256079738
3256084620
3256091517
3256095912
3256102443
3256106410
3256112941
3256118922
3256124843
3256129908
3256136073
3256140529
3256146632
3256151881
3256159083
3256164698
3256171290
3256176661
3256181422
3256187770
3256192591
3256198573
3256204554
3256211146
3256215846
3256220973
3256227198
3256231837
3256238062
3256244776
3256249354
3256255396
3256261317
3256266932
3256271510
3256277613
3256283900
3256289271
3256294459
3256299952
3256305384
3256311243
3256316492
3256322535
3256327601
3256336878
3256343287
3256349390
3256355311
3256360560
3256364954
3256372217
3256376551
3256383143
3256389063
3256393946
3256399988
3256406092
3256410303
3256416712
3256422632
3256428003
3256433680
3256439966
3256445337
3256451075
3256456446
3256462427
3256467615
3256472437
3256478968
3256483057
3256489649
3256494715
3256501489
3256505640
3256512232
3256517237
3256523279
3256527735
3256534204
3256540918
3256546961
3256552942
3256559595
3256563379
3256570154
3256576746
3256582605
3256592554
3256598962
3256604578
3256611169
3256615991
3256622522
3256628442
3256634729
3256640832
3256646081
3256652246
3256657495
3256662378
3256669458
3256674219
3256680871
3256686487
3256691186
3256697595
3256702234
3256707727
3256714135
3256720239
3256725732
3256731469
3256735620
3256742578
3256746789
3256754174
3256759668
3256764917
3256769738
3256776208
3256781701
3256787072
3256792504
3256797692
3256804406
3256809045
3256814355
3256820519
3256825646
3256831933
3256837792
3256842431
3256849633
3256853661
3256860558
3256864526
3256871484
3256878259
3256884423
3256890588
3256895959
3256901757
3256906884
3256912682
3256918053
3256922448
3256929223
3256935387
3256940148
3256946557
3256951501
3256956505
3256962609
3256969872
3256976464
3256981652
3256985802
3256994042
3257000512
3257007470
3257013146
3257019616
3257025048
3257030297
3257036583
3257041405
3257047509
3257053551
3257058617
3257064782
3257069725
3257075951
3257082604
3257087792
3257092797
3257098473
3257106896
3257113060
3257121910
3257128502
3257137718
3257144554
3257149498
3257158836
3257163414
3257169396
3257175133
3257179771
3257186058
3257192406
3257198021
3257202049
3257209740
3257214134
3257220726
3257226341
3257231773
3257236778
3257243614
3257248436
3257255028
3257259544
3257265709
3257270714
3257276817
3257281761
3257287925
3257294090
3257300499
3257305687
3257311119
3257316307
3257322044
3257327415
3257332664
3257338829
3257345665
3257351890
3257357017
3257361351
3257369529
3257375144
3257380455
3257385093
3257391624
3257396324
3257402732
3257407554
3257414939
3257420616
3257426292
3257431846
3257438560
3257443687
3257447715
3257455039
3257460166
3257465415
3257470969
3257477561
3257482810
3257487876
3257494468
3257500632
3257507102
3257511375
3257518943
3257523582
3257530051
3257534446
3257540977
3257545737
3257550986
3257556541
3257563193
3257567710
3257573874
3257580588
3257585593
3257590842
3257596152
3257602500
3257607627
3257612326
3257617392
3257623984
3257629111
3257635276
3257641623
3257645469
3257651938
3257657004
3257669516
3257674460
3257681052
3257687461
3257691855
3257697470
3257702536
3257709250
3257714194
3257719992
3257726096
3257729880
3257736228
3257741171
3257747092
3257753012
3257759665
3257764914
3257770651
3257776877
3257781638
3257786459
3257792563
3257799094
3257804892
3257809653
3257814535
3257820578
3257825705
3257832358
3257837912
3257843283
3257848471
3257853781
3257859213
3257864828
3257871298
3257877279
3257882467
3257887167
3257893820
3257897970
3257904440
3257909933
3257914877
3257921347
3257926168
3257931845
3257937826
3257942282
3257949179
3257956808
3257961630
3257968771
3257974752
3257979818
3257986471
3257991171
3257996542
3258002706
3258007772
3258013754
3258018820
3258024862
3258030599
3258035848
3258042562
3258047201
3258054037
3258058859
3258064779
3258070211
3258075338
3258080587
3258086691
3258092001
3258096639
3258102987
3258107931
3258113729
3258118734
3258129537
3258134725
3258139059
3258145711
3258151205
3258157125
3258162191
3258168783
3258173910
3258180135
3258186910
3258194539
3258200216
3258204915
3258212423
3258218770
3258224935
3258229207
3258235372
3258240377
3258246541
3258251790
3258257772
3258263265
3258269490
3258274556
3258278768
3258285787
3258290303
3258297078
3258302815
3258309407
3258313558
3258320149
3258324300
3258331014
3258335774
3258342183
3258347066
3258353169
3258359883
3258364095
3258370992
3258375020
3258381123
3258387288
3258394307
3258398518
3258405110
3258410115
3258415242
3258421529
3258427205
3258433674
3258438618
3258443318
3258449422
3258454426
3258460469
3258466084
3258472066
3258477559
3258484089
3258489399
3258496113
3258502705
3258508259
3258513630
3258520283
3258525471
3258530415
3258537007
3258542805
3258547932
3258553303
3258559529
3258565266
3258569844
3258576985
3258581562
3258588215
3258592854
3258600483
3258605061
3258611592
3258617329
3258622090
3258627705
3258633869
3258639301
3258646504
3258652546
3258657124
3258663471
3258667988
3258674335
3258679401
3258685505
3258690021
3258695759
3258701130
3258706989
3258711689
3258717060
3258725605
3258730854
3258736957
3258743732
3258748676
3258754902
3258759540
3258766132
3258772236
3258776386
3258782428
3258788654
3258792865
3258799823
3258806904
3258813129
3258817279
3258825275
3258831256
3258836200
3258841571
3258848041
3258853229
3258859394
3258863727
3258869709
3258875141
3258881183
3258885517
3258891498
3258897663
3258903949
3258909259
3258913532
3258919696
3258923786
3258931537
3258936969
3258943134
3258948932
3258954181
3258959735
3258964984
3258970844
3258975970
3258981403
3258988055
3258993182
3258999042
3259004718
3259010150
3259015521
3259022540
3259027789
3259033404
3259040057
3259045001
3259051593
3259056109
3259062701
3259067218
3259073749
3259078692
3259086078
3259090228
3259096393
3259102191
3259107623
3259113360
3259119403
3259125933
3259130389
3259136798
3259141192
3259147662
3259153155
3259159808
3259165118
3259171282
3259175799
3259181842
3259188128
3259193987
3259199542
3259203875
3259211260
3259216509
3259221880
3259227374
3259232623
3259238421
3259245135
3259248980
3259255084
3259261797
3259269549
3259276019
3259280779
3259288592
3259294756
3259300005
3259304949
3259310564
3259317095
3259322222
3259327715
3259334368
3259339251
3259344866
3259349688
3259356035
3259362200
3259366472
3259373736
3259379717
3259385882
3259391924
3259396502
3259401445
3259407488
3259415728
3259421160
3259426348
3259431963
3259437212
3259443438
3259448687
3259453569
3259460222
3259466387
3259471086
3259477739
3259482378
3259487993
3259494036
3259498735
3259504900
3259510881
3259517290
3259522356
3259527055
3259533403
3259539568
3259544450
3259551225
3259556291
3259564531
3259570696
3259575945
3259582292
3259588029
3259593156
3259599565
3259603960
3259610612
3259614641
3259621110
3259626359
3259632890
3259637590
3259643571
3259648454
3259654619
3259660600
3259666826
3259672319
3259678361
3259685136
3259689409
3259696489
3259701249
3259708085
3259713701
3259718766
3259723832
3259729753
3259736283
3259740373
3259746415
3259751847
3259758195
3259763932
3259769242
3259775712
3259780961
3259786393
3259791093
3259796586
3259804582
3259812821
3259818192
3259824662
3259830155
3259835404
3259841752
3259846757
3259852616
3259857804
3259863969
3259868913
3259875199
3259880021
3259886246
3259892167
3259896378
3259903519
3259907792
3259914811
3259918961
3259926835
3259932511
3259937699
3259943741
3259948441
3259955094
3259959916
3259965958
3259972123
3259976273
3259982316
3259987626
3259993790
3259999833
3260003800
3260010025
3260016068
3260021317
3260027665
3260032914
3260038041
3260043228
3260048539
3260055008
3260060807
3260066727
3260070877
3260076798
3260083145
3260089188
3260094742
3260103592
3260109574
3260115067
3260119278
3260125626
3260131180
3260136795
3260142838
3260149429
3260154800
3260160538
3260166763
3260172501
3260179459
3260186295
3260192093
3260195877
3260202957
3260206802
3260214188
3260218765
3260226456
3260230728
3260236526
3260243423
3260251053
3260256668
3260263077
3260269302
3260273269
3260279739
3260287002
3260292740
3260297989
3260302139
3260309951
3260316482
3260321365
3260327346
3260334549
3260341568
3260349014
3260354507
3260359939
3260365921
3260372268
3260378066
3260383682
3260389114
3260394485
3260399856
3260405776
3260411636
3260417312
3260423110
3260426956
3260434097
3260438430
3260445144
3260450881
3260456008
3260461929
3260467361
3260473159
3260478896
3260485671
3260490676
3260495803
3260501968
3260507033
3260513259
3260518386
3260524550
3260530044
3260536513
3260541823
3260547439
3260552688
3260558547
3260564467
3260571486
3260576125
3260581130
3260587600
3260592727
3260598769
3260603713
3260610366
3260617080
3260621840
3260628188
3260634597
3260640151
3260645766
3260651259
3260656813
3260663283
3260667617
3260674208
3260679152
3260685622
3260690871
3260697585
3260702284
3260708327
3260713210
3260719374
3260724623
3260730849
3260736525
3260740492
3260747755
3260751967
3260758009
3260763869
3260769179
3260775343
3260780714
3260786574
3260793227
3260797682
3260803297
3260808302
3260814528
3260820997
3260827284
3260833266
3260837660
3260843580
3260848829
3260854139
3260861952
3260868727
3260876845
3260884413
3260889662
3260895887
3260900404
3260906630
3260911634
3260917433
3260922804
3260928968
3260933119
3260939222
3260945387
3260950941
3260956739
3260960951
3260967237
3260973341
3260978834
3260984937
3260991712
3260996229
3261002760
3261007154
3261013807
3261019300
3261024000
3261030103
3261036634
3261040785
3261048231
3261052564
3261058607
3261065137
3261069288
3261075758
3261083692
3261091993
3261096571
3261104749
3261112745
3261119031
3261125440
3261133253
3261141065
3261146924
3261154798
3261162305
3261169263
3261180616
3261189039
3261195203
3261200391
3261205640
3261211499
3261216687
3261222425
3261229566
3261235303
3261240003
3261246595
3261251233
3261256726
3261262891
3261268689
3261272962
3261280164
3261285901
3261291211
3261295423
3261302197
3261308362
3261313794
3261319470
3261324658
3261329846
3261335034
3261340833
3261347302
3261352856
3261358167
3261364453
3261369275
3261375684
3261382031
3261386365
3261392651
3261400037
3261404309
3261410474
3261416760
3261422558
3261430127
3261436658
3261443066
3261451184
3261456860
3261462170
3261468701
3261473523
3261479199
3261485547
3261489880
3261496533
3261503125
3261507153
3261512890
3261518872
3261525463
3261529614
3261535595
3261542004
3261548901
3261554272
3261559582
3261564587
3261571118
3261576123
3261583264
3261588024
3261593823
3261599865
3261606091
3261612255
3261616222
3261623669
3261628429
3261635021
3261638134
3261646252
3261650341
3261656872
3261661510
3261668163
3261673656
3261679821
3261685497
3261690319
3261695141
3261701488
3261707104
3261713207
3261718822
3261723095
3261731212
3261735302
3261742016
3261748058
3261753490
3261759960
3261765087
3261770092
3261776684
3261781139
3261787731
3261792308
3261798717
3261805004
3261810802
3261815990
3261821483
3261828014
3261833751
3261839122
3261844738
3261849803
3261855968
3261860851
3261865978
3261872569
3261878551
3261885753
3261892589
3261898204
3261903758
3261908946
3261915233
3261920848
3261927318
3261933421
3261937389
3261944103
3261948741
3261954967
3261960338
3261965770
3261979625
3261985789
3261992076
3261997813
3262002879
3262008861
3262014720
3262018504
3262024608
3262030345
3262035228
3262041026
3262047984
3262052134
3262058726
3262063853
3262070140
3262074107
3262080577
3262086253
3262092418
3262098521
3262102549
3262109690
3262113841
3262120433
3262126475
3262131846
3262138316
3262143565
3262148448
3262153697
3262159434
3262166026
3262170420
3262177378
3262181651
3262188243
3262193858
3262200083
3262205210
3262211436
3262215769
3262221812
3262227976
3262233836
3262240550
3262245066
3262251475
3262257639
3262262827
3262269053
3262274424
3262279795
3262286265
3262292979
3262297007
3262303843
3262309519
3262314890
3262320750
3262325937
3262331431
3262337900
3262343516
3262350046
3262355478
3262360178
3262365488
3262371531
3262378122
3262382212
3262388620
3262394846
3262399912
3262405771
3262410898
3262416697
3262422007
3262427988
3262434763
3262439157
3262445749
3262451120
3262457163
3262461496
3262467600
3262473276
3262479502
3262483347
3262489389
3262494272
3262500864
3262506540
3262513742
3262520578
3262524973
3262532846
3262537485
3262544016
3262548898
3262554025
3262560312
3262565866
3262571786
3262589120
3262595224
3262601327
3262606027
3262612619
3262619272
3262624826
3262630014
3262636056
3262641183
3262646432
3262653879
3262659311
3262665475
3262671212
3262677316
3262682809
3262686837
3262694040
3262698190
3262705270
3262710031
3262716561
3262721505
3262726693
3262731881
3262738900
3262743600
3262751718
3262756417
3262761300
3262768014
3262772225
3262779550
3262785531
3262790902
3262795724
3262802438
3262808175
3262813546
3262820016
3262824593
3262829781
3262835824
3262840829
3262846993
3262852975
3262858407
3262864693
3262869149
3262876290
3262881966
3262887093
3262892892
3262898080
3262903695
3262909127
3262915414
3262921639
3262926095
3262932198
3262937264
3262943368
3262948311
3262954903
3262960824
3262965035
3262971199
3262977181
3262983712
3262988778
3262994149
3263000496
3263005318
3263011422
3263017220
3263021126
3263028511
3263033577
3263039620
3263052132
3263058541
3263064827
3263068672
3263075264
3263080452
3263085274
3263090584
3263096687
3263100472
3263106392
3263111519
3263117745
3263124153
3263129463
3263134468
3263140083
3263145576
3263150948
3263157478
3263162849
3263168587
3263174080
3263180122
3263186470
3263190925
3263198128
3263202766
3263209968
3263216438
3263222297
3263227730
3263232429
3263239937
3263246589
3263251655
3263257515
3263262825
3263267952
3263274604
3263278816
3263285347
3263289863
3263296272
3263302253
3263306953
3263311836
3263317878
3263324958
3263330024
3263336799
3263343574
3263348945
3263353034
3263360786
3263365425
3263372444
3263377265
3263383979
3263388435
3263395027
3263399909
3263405891
3263411140
3263417487
3263422187
3263428169
3263433173
3263439277
3263443366
3263449592
3263456306
3263462104
3263467292
3263471442
3263477729
3263484260
3263489692
3263494819
3263500190
3263505561
3263511970
3263516486
3263522956
3263528693
3263534675
3263539557
3263545783
3263550178
3263556342
3263563117
3263567695
3263574530
3263582160
3263588324
3263595343
3263601020
3263607123
3263613044
3263618354
3263622504
3263630561
3263635932
3263641059
3263646186
3263652838
3263658820
3263663520
3263669562
3263675665
3263681220
3263687506
3263694037
3263698798
3263704047
3263710577
3263715888
3263722418
3263727301
3263732794
3263738837
3263743964
3263750006
3263754828
3263761053
3263767035
3263771124
3263776434
3263782599
3263788153
3263794256
3263800726
3263806036
3263812567
3263817511
3263824103
3263828619
3263835272
3263839422
3263846502
3263852484
3263857123
3263863043
3263869452
3263875982
3263882025
3263887274
3263893560
3263898809
3263905218
3263910345
3263914984
3263921575
3263927008
3263932501
3263938665
3263944708
3263950384
3263955145
3263960516
3263966680
3263971807
3263977972
3263982549
3263988836
3263994817
3264000982
3264006170
3264011358
3264016912
3264022649
3264029119
3264034002
3264039190
3264043951
3264051031
3264055608
3264062078
3264068975
3264073186
3264079656
3264083745
3264091802
3264097173
3264102666
3264109197
3264120855
3264126653
3264134649
3264138677
3264147222
3264151983
3264158696
3264163213
3264169622
3264174138
3264180669
3264185369
3264191411
3264196172
3264202153
3264207524
3264213933
3264220098
3264225896
3264232427
3264237737
3264242864
3264248662
3264255864
3264260198
3264266973
3264272771
3264278874
3264283940
3264289983
3264295171
3264300054
3264305119
3264311345
3264316350
3264323369
3264328374
3264334538
3264341313
3264346806
3264352116
3264357732
3264363103
3264368718
3264375188
3264380437
3264385747
3264391423
3264396672
3264403203
3264409855
3264415227
3264420842
3264427373
3264432255
3264438847
3264444279
3264450261
3264455998
3264461308
3264467106
3264472538
3264477971
3264483159
3264488835
3264494023
3264499882
3264506596
3264511052
3264518071
3264522465
3264528996
3264533818
3264539921
3264544438
3264551945
3264557255
3264563114
3264568424
3264574223
3264579594
3264585331
3264590641
3264596562
3264601811
3264607853
3264613041
3264617863
3264625065
3264630924
3264637211
3264642643
3264648136
3264654789
3264661991
3264668217
3264677860
3264682438
3264687809
3264695255
3264700565
3264704777
3264711002
3264716800
3264723453
3264728885
3264734012
3264739872
3264745182
3264751224
3264756046
3264762394
3264767032
3264773258
3264779422
3264784305
3264790287
3264796512
3264802982
3264808353
3264813968
3264819217
3264824832
3264830081
3264835941
3264841800
3264848148
3264853397
3264859500
3264864566
3264870853
3264875491
3264881473
3264887698
3264892520
3264898685
3264904971
3264909061
3264916446
3264922122
3264927737
3264933597
3264938785
3264944278
3264950015
3264955447
3264960940
3264967288
3264974612
3264980350
3264986514
3264991275
3264997500
3265003665
3265007815
3265015323
3265020205
3265025454
3265030520
3265036624
3265041140
3265046084
3265051639
3265056643
3265062137
3265068606
3265073489
3265077884
3265083743
3265088137
3265093325
3265100161
3265107302
3265112551
3265117251
3265122500
3265127200
3265131533
3265136904
3265143801
3265148928
3265154421
3265158816
3265164675
3265169192
3265174441
3265180605
3265187808
3265195010
3265202639
3265209475
3265214602
3265220522
3265226931
3265233096
3265237185
3265243288
3265249087
3265254580
3265261721
3265266909
3265272951
3265278200
3265283510
3265288698
3265295168
3265299868
3265304995
3265312441
3265318117
3265324099
3265328432
3265334597
3265340883
3265345034
3265351564
3265355776
3265363405
3265369021
3265374270
3265379885
3265386477
3265392214
3265397219
3265403444
3265408083
3265414736
3265420473
3265425966
3265432131
3265437319
3265443544
3265449465
3265455263
3265460329
3265465883
3265471315
3265477724
3265483827
3265489259
3265494692
3265502016
3265506838
3265513185
3265518007
3265523500
3265529420
3265534425
3265541994
3265547243
3265553224
3265558412
3265563905
3265569337
3265575807
3265580873
3265586000
3265592531
3265598207
3265604433
3265609376
3265615968
3265621339
3265627443
3265632936
3265636964
3265643800
3265649598
3265654969
3265661683
3265666932
3265672670
3265678102
3265684388
3265689637
3265695741
3265700624
3265706727
3265711488
3265717774
3265722535
3265727967
3265735353
3265743226
3265751893
3265757508
3265761598
3265768128
3265774171
3265778993
3265785279
3265791993
3265796510
3265802613
3265807496
3265813722
3265819703
3265825562
3265831055
3265837037
3265843568
3265848511
3265854981
3265859559
3265864869
3265870667
3265877503
3265882813
3265889039
3265893494
3265899659
3265905030
3265911133
3265918336
3265922486
3265929566
3265935181
3265940552
3265946045
3265951172
3265957215
3265962403
3265967286
3265973816
3265978455
3265985047
3265989685
3265996216
3266001465
3266009400
3266014649
3266019654
3266027344
3266032288
3266037964
3266043701
3266051758
3266055603
3266061768
3266068482
3266072693
3266079712
3266083984
3266091309
3266095642
3266101868
3266107788
3266113037
3266118652
3266123840
3266128967
3266135620
3266140259
3266146790
3266150757
3266157288
3266161743
3266168152
3266174255
3266179199
3266185181
3266191284
3266195495
3266201599
3266207763
3266211975
3266219787
3266224304
3266231201
3266237060
3266243042
3266246826
3266252685
3266259704
3266269958
3266277465
3266284668
3266289001
3266295349
3266301757
3266306030
3266312866
3266318542
3266323669
3266330017
3266335205
3266340270
3266347351
3266352172
3266358703
3266363769
3266369811
3266374450
3266380615
3266385986
3266392272
3266397216
3266403259
3266409606
3266415099
3266420348
3266424621
3266430907
3266438049
3266444335
3266449584
3266454345
3266460265
3266466308
3266471068
3266477294
3266483520
3266489013
3266493163
3266499267
3266505309
3266509337
3266517028
3266521972
3266527282
3266534057
3266539428
3266545043
3266549926
3266554381
3266561828
3266567321
3266573607
3266579772
3266585204
3266591063
3266596495
3266601928
3266608336
3266613829
3266619017
3266625731
3266630187
3266636717
3266641173
3266648131
3266654112
3266658812
3266664671
3266670775
3266674986
3266681029
3266686278
3266692564
3266698668
3266702696
3266709349
3266713866
3266718687
3266724913
3266730406
3266735228
3266742613
3266748595
3266754942
3266762572
3266767088
3266773924
3266780394
3266785155
3266790343
3266797117
3266803770
3266808958
3266816282
3266820799
3266828306
3266834593
3266839232
3266844847
3266849730
3266855772
3266861754
3266867125
3266873045
3266877989
3266883299
3266888914
3266892942
3266900450
3266905760
3266910582
3266915647
3266920347
3266925901
3266931700
3266938291
3266943113
3266948667
3266954222
3266958372
3266964109
3266968870
3266975523
3266980772
3266985777
3266991758
3266995908
3267001951
3267007627
3267012632
3267018674
3267023374
3267028623
3267034238
3267038572
3267044187
3267048399
3267055295
3267061460
3267066770
3267071775
3267077268
3267083311
3267087949
3267094785
3267100095
3267105710
3267110654
3267116269
3267121946
3267127256
3267132444
3267138608
3267143857
3267148374
3267154355
3267158994
3267163755
3267168882
3267174009
3267180112
3267186093
3267190732
3267196347
3267201718
3267205564
3267212461
3267219907
3267225034
3267230161
3267234921
3267239987
3267244748
3267249814
3267256589
3267261167
3267266965
3267271848
3267277707
3267281308
3267286923
3267292905
3267297727
3267304196
3267311704
3267317136
3267322507
3267327817
3267333676
3267340878
3267347226
3267353207
3267358212
3267362241
3267369015
3267373349
3267378537
3267385007
3267390133
3267394894
3267400937
3267405636
3267411740
3267416012
3267422970
3267427853
3267433285
3267438778
3267444149
3267448849
3267452633
3267459713
3267465756
3267470700
3267474545
3267480526
3267485104
3267491268
3267496823
3267502316
3267509396
3267514950
3267519955
3267525570
3267530758
3267536312
3267543148
3267548336
3267554501
3267559811
3267565548
3267570431
3267575619
3267582455
3267587582
3267594540
3267600155
3267605953
3267612423
3267617794
3267622860
3267628109
3267633419
3267639095
3267644100
3267650143
3267654537
3267660152
3267666195
3267671322
3267676998
3267682613
3267688228
3267693844
3267699398
3267704952
3267710384
3267715450
3267721615
3267726131
3267730465
3267736385
3267741390
3267747432
3267753109
3267759212
3267764156
3267769771
3267774959
3267780330
3267786312
3267793087
3267798030
3267805660
3267810054
3267818538
3267824214
3267832027
3267839717
3267845882
3267853145
3267858089
3267864131
3267869563
3267876582
3267883052
3267888912
3267894283
3267900813
3267906245
3267911067
3267917659
3267924312
3267929012
3267934138
3267940242
3267945186
3267951228
3267956111
3267962642
3267968379
3267974055
3267980891
3267985652
3267991023
3267996943
3268004146
3268008845
3268015559
3268020015
3268026484
3268031917
3268036494
3268041682
3268048030
3268053096
3268059138
3268064326
3268070430
3268076106
3268081721
3268087031
3268093318
3268098567
3268104304
3268109614
3268116389
3268121882
3268128230
3268133723
3268138972
3268145747
3268151118
3268157221
3268161799
3268167903
3268172907
3268182612
3268187739
3268193110
3268198298
3268203791
3268210322
3268215815
3268222529
3268227656
3268233820
3268239619
3268245478
3268250727
3268254999
3268262751
3268267573
3268274103
3268278681
3268285090
3268289179
3268295527
3268300104
3268307062
3268311762
3268318110
3268322321
3268328852
3268333796
3268339960
3268345331
3268351557
3268357233
3268361261
3268368341
3268374567
3268379999
3268385187
3268391718
3268396173
3268402887
3268407892
3268413874
3268418817
3268424799
3268430292
3268436090
3268442194
3268448969
3268453790
3268458795
3268464899
3268468805
3268476312
3268481561
3268487116
3268491632
3268497308
3268501520
3268507257
3268513422
3268520441
3268525629
3268529535
3268535760
3268539850
3268545953
3268551446
3268558038
3268562372
3268567926
3268573602
3268577325
3268583612
3268588922
3268594476
3268602411
3268609125
3268616754
3268622308
3268626947
3268632562
3268638543
3268644464
3268650079
3268657281
3268663324
3268667657
3268673639
3268681207
3268687249
3268692742
3268697381
3268704156
3268709588
3268714288
3268721002
3268726617
3268732720
3268737298
3268743096
3268749261
3268754815
3268760125
3268766107
3268771417
3268778069
3268786370
3268794366
3268798516
3268805413
3268811395
3268817315
3268823113
3268828423
3268833245
3268838250
3268844598
3268851006
3268855645
3268861809
3268866509
3268873955
3268881096
3268889458
3268896111
3268902276
3268908440
3268913811
3268918816
3268925164
3268931145
3268937249
3268942376
3268948235
3268954949
3268959343
3268966912
3268971672
3268978447
3268985527
3268990227
3268996636
3269003533
3269008599
3269014641
3269021050
3269024956
3269032219
3269038689
3269046196
3269052422
3269058220
3269063835
3269069328
3269073845
3269080864
3269085686
3269091728
3269097527
3269103386
3269109306
3269115959
3269122063
3269127434
3269133476
3269140129
3269145927
3269153129
3269158562
3269164787
3269169426
3269175224
3269181022
3269185844
3269193596
3269199394
3269205192
3269210014
3269214958
3269220634
3269227165
3269232353
3269238334
3269243705
3269249687
3269254448
3269260917
3269266227
3269271965
3269277275
3269282707
3269287712
3269293937
3269299736
3269304618
3269310783
3269317741
3269322013
3269328483
3269333915
3269340019
3269345817
3269352531
3269358817
3269364066
3269370414
3269376945
3269383415
3269388236
3269394096
3269400077
3269404411
3269411308
3269418693
3269424491
3269430778
3269435538
3269441825
3269448844
3269454276
3269460380
3269467643
3269472220
3269478324
3269483207
3269489127
3269494742
3269502433
3269508780
3269513785
3269519950
3269524894
3269530265
3269536429
3269541617
3269547721
3269553580
3269557853
3269564017
3269568656
3269574820
3269581717
3269587027
3269592765
3269597281
3269603202
3269610465
3269617850
3269622183
3269629691
3269634940
3269640860
3269646414
3269653372
3269659354
3269664725
3269670218
3269675467
3269682059
3269688712
3269700247
3269704947
3269710074
3269715994
3269721304
3269729117
3269735770
3269741324
3269746390
3269752981
3269758414
3269764883
3269771048
3269775931
3269781607
3269787161
3269793387
3269801870
3269808645
3269814383
3269820608
3269826956
3269832815
3269840750
3269846731
3269853628
3269860037
3269864370
3269871145
3269876638
3269882925
3269888662
3269894033
3269899954
3269904898
3269912344
3269918447
3269924612
3269929251
3269936392
3269940908
3269946646
3269951101
3269957998
3269964102
3269969289
3269975271
3269980215
3269986746
3269992422
3269997854
3270003957
3270008840
3270013845
3270018667
3270024221
3270030141
3270035329
3270040395
3270046499
3270050466
3270056509
3270061330
3270066884
3270073965
3270078603
3270084218
3270089895
3270095083
3270100881
3270106740
3270113027
3270118032
3270123281
3270128042
3270133352
3270138234
3270143178
3270149953
3270155263
3270160817
3270165700
3270171376
3270175161
3270181020
3270185536
3270191701
3270197927
3270203542
3270208425
3270214650
3270219411
3270224477
3270230641
3270236501
3270242421
3270248647
3270254445
3270259694
3270265981
3270271535
3270277821
3270282765
3270288747
3270294850
3270300221
3270306325
3270310719
3270317555
3270322926
3270329091
3270335072
3270342335
3270347523
3270353383
3270360280
3270366261
3270371754
3270376637
3270380665
3270387745
3270392506
3270397511
3270402638
3270409413
3270414418
3270420216
3270425282
3270430958
3270435292
3270442067
3270447560
3270452626
3270457386
3270463368
3270468312
3270474049
3270479298
3270484730
3270490101
3270495716
3270501393
3270505787
3270511585
3270515980
3270522694
3270528004
3270533680
3270540150
3270545338
3270551380
3270556385
3270562550
3270567860
3270573841
3270578541
3270584339
3270589283
3270594959
3270601795
3270607166
3270613270
3270618702
3270625050
3270631214
3270637195
3270641895
3270648853
3270655689
3270662830
3270671375
3270678577
3270684803
3270693531
3270701282
3270708423
3270715564
3270722767
3270729908
3270737049
3270745960
3270753101
3270760486
3270766101
3270771595
3270776538
3270782459
3270788379
3270793628
3270799365
3270807239
3270813404
3270819324
3270825366
3270831470
3270837512
3270841113
3270846179
3270854724
3270861560
3270868030
3270874439
3270878101
3270884692
3270889148
3270893848
3270899402
3270904529
3270909167
3270915820
3270920276
3270923816
3270930102
3270936023
3270940967
3270946704
3270952258
3270956348
3270961658
3270967639
3270974536
3270979785
3270985217
3270991076
3270996753
3271000842
3271008410
3271014026
3271020434
3271024890
3271030749
3271036670
3271040759
3271046923
3271052539
3271057849
3271063159
3271068103
3271074206
3271079150
3271084216
3271091113
3271096240
3271102282
3271108813
3271115466
3271120959
3271128039
3271134204
3271140490
3271144518
3271150256
3271155383
3271161486
3271165270
3271171557
3271177844
3271182970
3271188769
3271193163
3271197741
3271203905
3271208178
3271215502
3271220446
3271226061
3271230273
3271235888
3271241930
3271245959
3271253893
3271258227
3271264330
3271270617
3271275377
3271280443
3271286303
3271292284
3271299791
3271305224
3271309191
3271315355
3271320055
3271326098
3271331713
3271337755
3271343676
3271347765
3271355028
3271359301
3271367540
3271373400
3271379930
3271385240
3271391832
3271396776
3271401476
3271407701
3271414598
3271420885
3271425829
3271432298
3271437303
3271441759
3271447801
3271452501
3271459764
3271464525
3271471483
3271476610
3271482225
3271488268
3271492784
3271500963
3271506029
3271511583
3271516405
3271521471
3271528001
3271531847
3271538499
3271543565
3271550157
3271555528
3271561204
3271566881
3271572069
3271577745
3271583604
3271588792
3271593919
3271598985
3271605150
3271609605
3271615587
3271621934
3271626756
3271632920
3271639390
3271645555
3271650865
3271655320
3271664109
3271670030
3271674485
3271678392
3271682359
3271687730
3271691941
3271696824
3271701219
3271705125
3271708726
3271712205
3271716538
3271720078
3271725572
3271731065
3271734361
3271738938
3271742051
3271746507
3271750596
3271755113
3271759873
3271762864
3271768418
3271772324
3271777451
3271781236
3271785691
3271789964
3271793565
3271797898
3271802110
3271805650
3271809983
3271815964
3271822434
3271826279
3271831528
3271835862
3271840439
3271843735
3271848679
3271853562
3271858140
3271862107
3271866074
3271869980
3271874131
3271880723
3271884812
3271889329
3271894700
3271897995
3271903672
3271908188
3271913498
3271917160
3271922104
3271927109
3271932480
3271936753
3271941147
3271947251
3271950974
3271955246
3271960068
3271964157
3271968979
3271972885
3271976853
3271980576
3271986069
3271990341
3271993759
3271998337
3272001755
3272005783
3272011826
3272016098
3272020798
3272024704
3272028916
3272033798
3272037827
3272043015
3272047409
3272051804
3272056503
3272060776
3272064804
3272068955
3272074631
3272079392
3272082443
3272087082
3272091537
3272096786
3272101242
3272106491
3272111862
3272116257
3272120956
3272124863
3272130051
3272135055
3272140121
3272144943
3272149216
3272154037
3272158249
3272163620
3272169601
3272174118
3272178940
3272182663
3272187729
3272191574
3272195602
3272200668
3272205856
3272210922
3272217025
3272223068
3272228256
3272233932
3272239608
3272244857
3272249801
3272255416
3272259689
3272264328
3272269210
3272275741
3272280929
3272285446
3272289901
3272294723
3272299667
3272304000
3272310836
3272317855
3272322860
3272326461
3272331039
3272336959
3272341171
3272348739
3272354049
3272358444
3272363326
3272368758
3272373946
3272379440
3272384261
3272390548
3272394637
3272400741
3272406783
3272411605
3272416061
3272422469
3272427901
3272434676
3272439376
3272444991
3272450606
3272455977
3272461593
3272466964
3272472884
3272478560
3272484481
3272490523
3272494002
3272502974
3272509627
3272514327
3272519454
3272525130
3272530928
3272535750
3272540938
3272546798
3272552901
3272558944
3272564193
3272569808
3272574813
3272579146
3272584395
3272590743
3272596602
3272603438
3272608199
3272612959
3272619002
3272623580
3272629500
3272634505
3272639937
3272645796
3272649703
3272657454
3272663069
3272668501
3272674605
3272682051
3272687239
3272692244
3272700484
3272706343
3272715315
3272721052
3272727644
3272734968
3272742476
3272749861
3272758589
3272766218
3272773482
3272780195
3272788923
3272796431
3272804304
3272808821
3272815168
3272823713
3272830549
3272837568
3272845930
3272851545
3272855940
3272864790
3272871931
3272877180
3272885664
3272891950
3272900495
3272909040
3272915205
3272920393
3272929304
3272933271
3272942732
3272950300
3272961713
3272966352
3272976484
3272983015
3272990034
3272997602
3273005476
3273013227
3273019819
3273028059
3273035627
3273044355
3273049238
3273056257
3273064313
3273073041
3273083783
3273090497
3273096784
3273103986
3273113446
3273122297
3273130780
3273140241
3273147992
3273158368
3273163495
3273172162
3273182538
3273187238
3273195905
3273200421
3273208966
3273216840
3273223615
3273230939
3273237897
3273245404
3273253217
3273259564
3273268536
3273272992
3273283307
3273290448
3273295087
3273304852
3273309918
3273321759
3273328168
3273335309
3273343365
3273351788
3273360455
3273367901
3273377545
3273382977
3273392865
3273402020
3273408184
3273417828
3273423138
3273431622
3273440350
3273447674
3273457379
3273464947
3273471539
3273481671
3273487530
3273498516
3273506939
3273515667
3273522503
3273529705
3273537518
3273545208
3273553326
3273560650
3273571148
3273576580
3273588909
3273596783
3273603252
3273612469
3273620647
3273630291
3273637249
3273642315
3273650799
3273655376
3273662761
3273672893
3273677105
3273686199
3273694561
3273701214
3273707866
3273716838
3273724773
3273733074
3273741619
3273749858
3273757610
3273767192
3273773357
3273781963
3273790447
3273799297
3273807475
3273814311
3273823833
3273829814
3273840495
3273848186
3273858623
3273866618
3273873882
3273881755
3273887248
3273897014
3273902202
3273911479
3273920878
3273929668
3273937541
3273939921
3273951274
3273959208
3273964457
3273972087
3273978984
3273992350
3273997905
3274005473
3274013530
3274019755
3274028910
3274035868
3274043437
3274051677
3274060832
3274068217
3274076091
3274084635
3274091288
3274099223
3274106425
3274113871
3274120768
3274128275
3274141398
3274149210
3274154887
3274163615
3274170390
3274176920
3274184428
3274191874
3274198344
3274205180
3274211710
3274220988
3274227518
3274234537
3274239847
3274244181
3274254740
3274261271
3274268534
3274276102
3274283732
3274292215
3274296122
3274306009
3274312296
3274318277
3274325480
3274332193
3274339457
3274348734
3274353922
3274360880
3274368753
3274375711
3274381204
3274388834
3274393839
3274400919
3274410562
3274416666
3274423990
3274430216
3274438211
3274444925
3274449564
3274457132
3274464151
3274475320
3274485513
3274493021
3274502664
3274509317
3274516580
3274527688
3274534952
3274540872
3274549905
3274557046
3274566873
3274571756
3274580606
3274589517
3274596963
3274606485
3274611734
3274619729
3274633584
3274641336
3274647256
3274655130
3274661599
3274668618
3274677163
3274682962
3274692544
3274700173
3274706765
3274714517
3274722207
3274728433
3274736916
3274741311
3274751382
3274757974
3274765298
3274772256
3274781350
3274787820
3274793557
3274801797
3274808083
3274813027
3274821450
3274825722
3274833047
3274843545
3274849953
3274857461
3274864419
3274870766
3274877114
3274885476
3274891274
3274896767
3274904824
3274911049
3274919228
3274923561
3274934914
3274941933
3274951516
3274960121
3274969338
3274975991
3274980507
3274994240
3275000038
3275008888
3275013527
3275024025
3275031410
3275039345
3275048134
3275054543
3275063515
3275068520
3275078590
3275085609
3275092812
3275099892
3275104652
3275113624
3275122841
3275131203
3275139320
3275144813
3275153663
3275157692
3275167579
3275173988
3275179359
3275188270
3275192665
3275201332
3275207985
3275216468
3275224159
3275230690
3275237342
3275244239
3275250404
3275262733
3275269752
3275277687
3275280128
3275292091
3275297950
3275304176
3275311744
3275319618
3275326148
3275330726
3275339027
3275346717
3275352638
3275361243
3275370216
3275376502
3275386390
3275393836
3275401099
3275406226
3275412818
3275419349
3275425818
3275429053
3275436988
3275441199
3275445777
3275453406
3275458472
3275465003
3275469153
3275475623
3275480201
3275485328
3275490332
3275497290
3275504187
3275509375
3275513587
3275521155
3275525977
3275531409
3275534522
3275542517
3275548621
3275554358
3275559973
3275565406
3275570655
3275576209
3275580725
3275588172
3275593604
3275599585
3275603919
3275609473
3275613806
3275618994
3275625281
3275630347
3275638464
3275643408
3275648474
3275652930
3275660010
3275664038
3275669531
3275676062
3275681738
3275686316
3275692480
3275699927
3275709265
3275718359
3275722571
3275729040
3275734900
3275743078
3275747168
3275753699
3275757666
3275764319
3275768713
3275775000
3275778784
3275787146
3275792517
3275797583
3275801916
3275807653
3275813208
3275818823
3275823767
3275829626
3275834936
3275840734
3275845251
3275851904
3275856359
3275860815
3275867285
3275872717
3275878149
3275883398
3275890356
3275895483
3275900549
3275905126
3275910681
3275916296
3275922033
3275928198
3275932836
3275937292
3275943395
3275947668
3275953649
3275960058
3275964513
3275971410
3275979650
3275986059
3275992773
3275998998
3276004369
3276009435
3276015966
3276020849
3276025915
3276029760
3276036474
3276041967
3276047338
3276052648
3276059667
3276065465
3276071447
3276077062
3276081151
3276085790
3276092809
3276097142
3276102575
3276109655
3276113622
3276119909
3276124486
3276130834
3276135961
3276140905
3276146154
3276151891
3276158666
3276163915
3276169408
3276174596
3276179418
3276184728
3276189672
3276195531
3276200475
3276206700
3276210912
3276215428
3276222752
3276228795
3276233739
3276239781
3276244969
3276250096
3276255284
3276261082
3276267003
3276271825
3276278050
3276283482
3276291295
3276298253
3276305760
3276310887
3276315892
3276320164
3276327000
3276331578
3276337681
3276342930
3276348607
3276353734
3276359227
3276364415
3276370579
3276375401
3276379857
3276387303
3276392796
3276398289
3276402684
3276410313
3276414891
3276420628
3276425206
3276431004
3276437352
3276443150
3276448948
3276453099
3276461094
3276471165
3276477329
3276485203
3276491612
3276497471
3276502171
3276507420
3276512852
3276516026
3276522190
3276527073
3276532444
3276538242
3276543308
3276548191
3276554112
3276560642
3276569920
3276577244
3276583164
3276588779
3276593052
3276599888
3276604038
3276609226
3276614963
3276620457
3276627598
3276633030
3276638279
3276643894
3276648533
3276653721
3276659336
3276663730
3276668308
3276675632
3276681308
3276686741
3276691990
3276697849
3276702610
3276707553
3276714206
3276720554
3276723545
3276730197
3276736606
3276742404
3276745456
3276752658
3276758762
3276765598
3276768833
3276776340
3276782077
3276788486
3276792697
3276798068
3276806308
3276812473
3276817539
3276823154
3276829257
3276835178
3276839267
3276846286
3276853061
3276861667
3276866367
3276872287
3276877109
3276884128
3276889255
3276894748
3276901279
3276905551
3276910373
3276915439
3276920199
3276924960
3276931308
3276936313
3276941684
3276948337
3276952609
3276958590
3276962375
3276968905
3276975253
3276981418
3276987094
3276991488
3276996920
3277002047
3277007907
3277013400
3277019381
3277024935
3277030490
3277035434
3277040072
3277045443
3277050570
3277056918
3277062899
3277067599
3277072116
3277078646
3277082186
3277090487
3277101595
3277109774
3277116000
3277120577
3277126254
3277132296
3277138339
3277143404
3277146944
3277154879
3277160555
3277164767
3277171358
3277177828
3277183321
3277186312
3277195101
3277199129
3277205538
3277210116
3277217501
3277223116
3277227205
3277233309
3277238131
3277243502
3277248751
3277255770
3277261263
3277268343
3277274080
3277279207
3277285250
3277290072
3277295137
3277301241
3277308199
3277314180
3277319368
3277325167
3277331148
3277336031
3277342440
3277349337
3277356539
3277362459
3277365816
3277373323
3277380647
3277385103
3277391695
3277401827
3277407869
3277412996
3277418245
3277423738
3277428804
3277434541
3277440706
3277445406
3277451570
3277457246
3277460054
3277467195
3277471956
3277476594
3277485139
3277492097
3277497468
3277501680
3277509553
3277513765
3277519624
3277526216
3277533540
3277539522
3277545930
3277549470
3277557771
3277563142
3277569490
3277576936
3277580842
3277587678
3277595918
3277598909
3277606355
3277611604
3277615449
3277621431
3277628205
3277634553
3277639680
3277644258
3277649751
3277658052
3277664887
3277670808
3277678742
3277682771
3277689912
3277695405
3277700166
3277704926
3277710969
3277716096
3277721528
3277728242
3277733064
3277738496
3277744721
3277748811
3277754060
3277759370
3277764924
3277771027
3277775605
3277782197
3277787019
3277793427
3277798005
3277802277
3277809540
3277815095
3277821869
3277825471
3277831879
3277835847
3277843171
3277846711
3277853547
3277859711
3277865876
3277871674
3277875153
3277881562
3277885590
3277892426
3277898285
3277903839
3277908539
3277915253
3277920319
3277925385
3277929901
3277934967
3277942475
3277947113
3277955353
3277960419
3277966400
3277971649
3277978607
3277983368
3277990021
3277995514
3278001251
3278006622
3278012604
3278015717
3278023834
3278030670
3278036835
3278042999
3278047516
3278052094
3278059174
3278063629
3278068024
3278077057
3278084259
3278089386
3278095917
3278099945
3278107025
3278111420
3278117706
3278124908
3278132477
3278139190
3278145233
3278150177
3278155914
3278163482
3278168121
3278175567
3278180938
3278186309
3278192291
3278197845
3278202545
3278208465
3278214447
3278220794
3278228241
3278235504
3278242645
3278247650
3278254425
3278259551
3278263580
3278274688
3278280059
3278286407
3278291290
3278298004
3278301849
3278307281
3278312713
3278319488
3278324981
3278330901
3278336028
3278341521
3278345733
3278351775
3278356231
3278360931
3278368743
3278373626
3278378631
3278384795
3278389983
3278395110
3278400298
3278405364
3278411284
3278418242
3278423675
3278428435
3278433806
3278438384
3278443938
3278448211
3278454680
3278462066
3278466338
3278473601
3278479277
3278485015
3278491057
3278496611
3278501433
3278509612
3278514128
3278520049
3278525725
3278531707
3278536345
3278543120
3278547942
3278554595
3278561370
3278567717
3278573332
3278581938
3278587798
3278592619
3278598235
3278603240
3278609099
3278614897
3278620635
3278625761
3278631255
3278635832
3278641264
3278645842
3278653105
3278658537
3278665312
3278669646
3278676604
3278681242
3278687041
3278692595
3278697417
3278703581
3278708586
3278714445
3278719755
3278725432
3278731413
3278735869
3278740812
3278748076
3278753019
3278760588
3278764921
3278770414
3278775786
3278781035
3278788115
3278791960
3278798185
3278803740
3278810209
3278815641
3278821318
3278826689
3278834196
3278839994
3278845915
3278853117
3278858305
3278865446
3278870390
3278876615
3278881376
3278886259
3278892484
3278900663
3278906095
3278911100
3278916227
3278922880
3278927702
3278932523
3278936979
3278942899
3278949247
3278956266
3278960111
3278967130
3278971525
3278977079
3278981901
3278990018
3278995328
3279001310
3279007047
3279011197
3279017606
3279021818
3279026517
3279032682
3279038724
3279046964
3279052274
3279057767
3279064054
3279068631
3279075895
3279079618
3279085355
3279091031
3279096708
3279102567
3279108121
3279113675
3279118070
3279122708
3279128873
3279136136
3279140775
3279147489
3279152432
3279158170
3279164029
3279169766
3279176908
3279181546
3279188382
3279194486
3279200162
3279205472
3279208341
3279215726
3279220487
3279225125
3279232694
3279237149
3279244107
3279248257
3279254666
3279259183
3279264188
3279269803
3279275540
3279281216
3279287198
3279292508
3279297879
3279303189
3279308804
3279313565
3279319607
3279324307
3279331204
3279335537
3279339993
3279346890
3279352810
3279358120
3279363064
3279371426
3279376919
3279382046
3279388150
3279394253
3279401333
3279407681
3279415860
3279422451
3279431240
3279444973
3279450344
3279457730
3279463284
3279467190
3279473416
3279478420
3279485500
3279489102
3279495876
3279500027
3279505581
3279510525
3279516384
3279523342
3279527615
3279532131
3279538723
3279542873
3279549404
3279553921
3279559109
3279565884
3279569485
3279575893
3279580044
3279585659
3279596950
3279602199
3279606655
3279614101
3279618374
3279624355
3279631191
3279636379
3279642605
3279647854
3279653042
3279661220
3279666347
3279672268
3279679531
3279685451
3279692104
3279698085
3279703395
3279709438
3279714870
3279721096
3279724514
3279733181
3279739223
3279745632
3279751674
3279758266
3279764247
3279771083
3279777919
3279781093
3279789211
3279793727
3279799342
3279803188
3279812892
3279817470
3279823390
3279828212
3279834254
3279839565
3279844875
3279850673
3279856105
3279861415
3279868068
3279874171
3279880336
3279886073
3279893214
3279898402
3279904567
3279909816
3279915248
3279921412
3279927577
3279932704
3279939845
3279945033
3279950038
3279955653
3279962428
3279965724
3279974574
3279981532
3279984828
3279992030
3279996608
3280004420
3280009974
3280018397
3280026637
3280031825
3280038539
3280047694
3280052760
3280058985
3280063258
3280070765
3280073939
3280079737
3280086451
3280090663
3280096827
3280100977
3280107813
3280113001
3280120509
3280124781
3280131861
3280136195
3280140833
3280147181
3280151636
3280159266
3280164576
3280169825
3280175379
3280180262
3280184901
3280190272
3280195765
3280201807
3280207056
3280212916
3280218470
3280224146
3280228724
3280234827
3280239527
3280244776
3280253382
3280259241
3280264856
3280269434
3280275965
3280282496
3280286951
3280293604
3280298609
3280304590
3280312281
3280317102
3280322901
3280330713
3280334314
3280341944
3280346826
3280353174
3280359827
3280365869
3280370447
3280376062
3280381311
3280387293
3280391992
3280397241
3280404566
3280409326
3280414697
3280421289
3280426782
3280432275
3280436731
3280441614
3280448938
3280455835
3280460901
3280465723
3280472681
3280477380
3280483484
3280489099
3280493799
3280501367
3280506860
3280514673
3280518945
3280527307
3280532922
3280540429
3280547082
3280554467
3280559778
3280566125
3280571679
3280577539
3280582177
3280587243
3280594079
3280598840
3280605127
3280611718
3280620324
3280627404
3280633203
3280639916
3280646691
3280652123
3280658227
3280663781
3280669457
3280676782
3280681237
3280687829
3280692468
3280699731
3280704675
3280710046
3280715417
3280722436
3280727624
3280733544
3280740624
3280744714
3280752221
3280757531
3280763024
3280768090
3280775353
3280780663
3280786462
3280791405
3280797692
3280804528
3280810937
3280815880
3280821923
3280827294
3280831444
3280839440
3280843651
3280850853
3280857079
3280862633
3280867577
3280873375
3280879479
3280885033
3280890770
3280897118
3280902855
3280908776
3280913903
3280919335
3280925011
3280933068
3280936302
3280944542
3280951866
3280957787
3280960533
3280967186
3280971642
3280979271
3280983482
3280990502
3280994774
3280999779
3281006798
3281010948
3281018150
3281023582
3281030357
3281037010
3281042809
3281048241
3281055199
3281062218
3281069908
3281077415
3281083763
3281092308
3281097557
3281103660
3281111717
3281119530
3281128074
3281133629
3281138206
3281146385
3281157615
3281166221
3281172020
3281180015
3281186546
3281193443
3281201438
3281209434
3281215782
3281221031
3281233299
3281239219
3281247154
3281253990
3281260215
3281267661
3281275596
3281285911
3281294395
3281301597
3281310203
3281320029
3281325767
3281331504
3281338279
3281343833
3281357200
3281371970
3281383567
3281387839
3281399619
3281403525
3281410666
3281419028
3281424705
3281431724
3281438010
3281446372
3281454123
3281460593
3281466758
3281474143
3281481162
3281488242
3281495139
3281500815
3281505393
3281516562
3281521811
3281529502
3281534445
3281540061
3281546836
3281551962
3281557089
3281563864
3281568137
3281574179
3281580283
3281585654
3281590659
3281596213
3281600607
3281604392
3281611838
3281617026
3281623862
3281628500
3281634055
3281639243
3281645285
3281651083
3281657248
3281663718
3281668295
3281673788
3281680258
3281685202
3281690146
3281697348
3281704550
3281710348
3281716635
3281721945
3281726645
3281732809
3281737753
3281743979
3281749106
3281755514
3281761374
3281768942
3281773092
3281777487
3281784018
3281789816
3281795187
3281799887
3281806723
3281811483
3281818136
3281823568
3281829244
3281835592
3281840597
3281845480
3281853842
3281858969
3281866598
3281872030
3281877706
3281882162
3281886617
3281893820
3281899923
3281905843
3281912252
3281917989
3281922140
3281929403
3281934164
3281940145
3281945577
3281949300
3281956808
3281972433
3281978414
3281982931
3281990865
3281995626
3282001729
3282005880
3282011434
3282016622
3282021810
3282027547
3282036397
3282041402
3282047017
3282053182
3282058675
3282061361
3282069051
3282073201
3282078756
3282083150
3282090535
3282095845
3282102376
3282106893
3282113118
3282117513
3282122274
3282128804
3282134175
3282139668
3282145894
3282150777
3282155110
3282160542
3282166036
3282171407
3282176351
3282181966
3282186726
3282193379
3282197713
3282202351
3282208821
3282213948
3282218831
3282224324
3282230000
3282235738
3282241048
3282247517
3282253926
3282261983
3282268880
3282274373
3282282857
3282291707
3282297749
3282303853
3282310261
3282319111
3282325337
3282333455
3282337849
3282348652
3282356404
3282363057
3282370625
3282377217
3282386311
3282390950
3282398823
3282407002
3282413960
3282420857
3282431965
3282438923
3282446980
3282451985
3282460896
3282466572
3282477619
3282484699
3282489033
3282499897
3282506672
3282512836
3282519856
3282530720
3282538410
3282546345
3282555622
3282560688
3282570392
3282575764
3282584431
3282592792
3282599140
3282607807
3282612568
3282620319
3282628254
3282635517
3282645649
3282653705
3282660236
3282666706
3282672931
3282681049
3282689716
3282697284
3282705585
3282716815
3282725910
3282734149
3282740985
3282746601
3282753864
3282759784
3282766376
3282771198
3282776019
3282784869
3282790973
3282795673
3282801715
3282806659
3282810870
3282816547
3282821979
3282827899
3282832538
3282838336
3282843646
3282849383
3282853839
3282860614
3282864825
3282868976
3282876178
3282881366
3282888385
3282893695
3282898883
3282902972
3282908465
3282913775
