3617772842
3617778336
3617784317
3617789749
3617794937
3617800674
3617806168
3617809708
3617817093
3617823074
3617828384
3617834366
3617840042
3617845352
3617851456
3617858169
3617863602
3617870437
3617876724
3617882339
3617889358
3617895401
3617901016
3617907486
3617913711
3617920730
3617927566
3617933181
3617943863
3617952285
3617959182
3617966079
3617974197
3617981216
3617987564
3617996231
3618001480
3618009841
3618017654
3618024856
3618031570
3618038101
3618047073
3618054946
3618061904
3618075698
3618082351
3618088821
3618096145
3618105849
3618114272
3618123366
3618129897
3618137099
3618144912
3618152602
3618158828
3618164870
3618172866
3618179763
3618188369
3618196181
3618203139
3618210830
3618216689
3618223586
3618230239
3618239394
3618246230
3618252089
3618261000
3618268386
3618275222
3618281691
3618289748
3618298842
3618306777
3618313857
3618321059
3618328688
3618336073
3618341567
3618352370
3618360060
3618367995
3618377882
3618387038
3618395216
3618403212
3618411635
3618418654
3618425429
3618433852
3618441908
3618450758
3618458693
3618466444
3618473341
3618481581
3618489576
3618497511
3618504591
3618513380
3618520277
3618525953
3618533155
3618542616
3618549025
3618557997
3618565809
3618570997
3618579237
3618586866
3618594740
3618602247
3618609693
3618613905
3618622877
3618630262
3618637037
3618646803
3618652601
3618661329
3618668836
3618674513
3618685438
3618698072
3618706556
3618713758
3618721571
3618729383
3618737562
3618744031
3618754957
3618763502
3618771192
3618779188
3618785718
3618792981
3618798963
3618808851
3618817090
3618825757
3618834241
3618842725
3618851209
3618858411
3618865064
3618873670
3618882215
3618890027
3618898023
3618905347
3618913159
3618922009
3618927808
3618937146
3618944348
3618952100
3618959546
3618968396
3618976025
3618983594
3618990613
3618998791
3619006543
3619014722
3619021924
3619029980
3619036938
3619047009
3619053052
3619060559
3619068860
3619077832
3619084302
3619092236
3619098523
3619105114
3619115185
3619122570
3619129834
3619137768
3619145947
3619153149
3619159130
3619167858
3619175000
3619182751
3619190014
3619196545
3619205822
3619210522
3619220287
3619229992
3619237133
3619245800
3619255138
3619260998
3619270580
3619277660
3619286388
3619295483
3619301037
3619311535
3619317821
3619326549
3619334240
3619343029
3619353405
3619361828
3619370312
3619378368
3619386364
3619392589
3619402111
3619409313
3619417186
3619423961
3619432506
3619439403
3619444713
3619453319
3619459240
3619467601
3619473949
3619482311
3619488353
3619497081
3619503978
3619510692
3619516734
3619526134
3619530284
3619539623
3619547008
3619554332
3619561778
3619569347
3619577220
3619582774
3619590465
3619598155
3619606578
3619612559
3619620616
3619629405
3619636912
3619643626
3619650767
3619658214
3619665294
3619672923
3619680613
3619687144
3619695506
3619702586
3619711253
3619718516
3619727671
3619735606
3619743602
3619750499
3619757823
3619765208
3619772654
3619780711
3619787547
3619795054
3619803782
3619811411
3619818614
3619826426
3619832591
3619840159
3619848399
3619855540
3619861277
3619870432
3619877573
3619885142
3619894419
3619900462
3619908518
3619914927
3619925486
3619930125
3619941355
3619949167
3619956919
3619963755
3619972178
3619980234
3619986704
3619994089
3620000376
3620010447
3620014719
3620024607
3620033579
3620039438
3620047251
3620052866
3620060312
3620069101
3620077707
3620091135
3620096140
3620103952
3620109018
3620116525
3620119760
3620130075
3620138376
3620143625
3620151010
3620157541
3620163705
3620170602
3620176584
3620183054
3620189096
3620194528
3620200571
3620206857
3620211679
3620219491
3620224618
3620231698
3620236825
3620242380
3620248361
3620253305
3620257699
3620264474
3620269113
3620276071
3620281198
3620286264
3620291452
3620296579
3620301034
3620308297
3620313791
3620317758
3620324167
3620328805
3620334787
3620339059
3620346139
3620353646
3620360788
3620366098
3620370553
3620376290
3620380563
3620386178
3620393075
3620398446
3620401498
3620408273
3620413583
3620418649
3620424081
3620430367
3620436044
3620441171
3620446542
3620452035
3620457040
3620460824
3620466866
3620472543
3620479195
3620482369
3620491097
3620496835
3620502206
3620507943
3620514718
3620520272
3620526498
3620530953
3620535470
3620541756
3620546700
3620551827
3620556100
3620563363
3620566414
3620573189
3620579415
3620584664
3620589730
3620595894
3620603707
3620612801
3620621102
3620625374
3620632576
3620637581
3620642891
3620650582
3620655403
3620663033
3620668343
3620673836
3620681038
3620685250
3620691353
3620697273
3620702950
3620709053
3620714119
3620720528
3620726265
3620731026
3620737618
3620742928
3620749458
3620752693
3620760323
3620763619
3620770943
3620777290
3620782906
3620787422
3620793037
3620799324
3620805611
3620811226
3620817146
3620822212
3620828133
3620832832
3620838753
3620844429
3620849312
3620856392
3620861641
3620868110
3620871650
3620880501
3620886665
3620891975
3620897834
3620902107
3620909370
3620913582
3620920356
3620924690
3620931038
3620937141
3620943061
3620947700
3620953254
3620959175
3620965339
3620969856
3620976203
3620983222
3620988960
3620994209
3620999641
3621005622
3621011665
3621017585
3621024604
3621029914
3621034736
3621041206
3621047431
3621052863
3621058173
3621063789
3621069282
3621074775
3621081611
3621085883
3621092597
3621096931
3621104743
3621109443
3621116584
3621119819
3621127814
3621131599
3621137946
3621145820
3621151923
3621158027
3621164618
3621169196
3621175239
3621181891
3621186530
3621193793
3621199164
3621206244
3621211615
3621216681
3621222541
3621227546
3621232856
3621238959
3621244208
3621249335
3621255194
3621260688
3621265143
3621271002
3621276740
3621283332
3621289008
3621292731
3621298834
3621304022
3621309027
3621314215
3621319708
3621326544
3621330512
3621336127
3621341803
3621346564
3621351935
3621357367
3621363287
3621368781
3621375006
3621380011
3621384833
3621390021
3621395148
3621401984
3621409491
3621415106
3621422003
3621428473
3621433050
3621440069
3621445257
3621452154
3621458685
3621464178
3621470221
3621474493
3621481817
3621486517
3621492926
3621498053
3621504828
3621510382
3621516729
3621522161
3621529242
3621534918
3621540960
3621545538
3621552557
3621558355
3621564520
3621570806
3621573919
3621580999
3621587957
3621593450
3621601080
3621607549
3621613714
3621618780
3621624395
3621630743
3621636541
3621642400
3621651434
3621661260
3621666143
3621673162
3621678411
3621684209
3621690252
3621697515
3621702459
3621708807
3621713872
3621719244
3621725896
3621732061
3621739080
3621745305
3621750432
3621755559
3621760747
3621766363
3621771367
3621777410
3621783025
3621787847
3621793462
3621799871
3621804509
3621809758
3621815923
3621821599
3621827336
3621832647
3621838750
3621843877
3621850286
3621856938
3621861882
3621866765
3621873601
3621879094
3621884892
3621891362
3621896611
3621903569
3621909306
3621913457
3621920781
3621928594
3621933110
3621939336
3621944768
3621951787
3621957158
3621962651
3621967717
3621974248
3621978825
3621986760
3621991338
3621997258
3622003545
3622009587
3622013432
3622020756
3622024907
3622030217
3622036137
3622042912
3622048466
3622054692
3622059453
3622066350
3622071232
3622076420
3622081791
3622087895
3622093388
3622099003
3622104802
3622112370
3622117192
3622122929
3622127262
3622133732
3622138981
3622146794
3622153019
3622159306
3622164799
3622169438
3622174565
3622180973
3622187382
3622192936
3622197270
3622204045
3622208195
3622213993
3622218571
3622226017
3622231327
3622236332
3622241764
3622246952
3622252934
3622256840
3622263798
3622267948
3622273991
3622278263
3622283939
3622288212
3622294681
3622300419
3622306827
3622312137
3622317753
3622322330
3622328007
3622332767
3622338383
3622344730
3622349979
3622357059
3622364139
3622369388
3622375187
3622379093
3622385685
3622391239
3622396732
3622400882
3622407901
3622412784
3622417850
3622424442
3622430484
3622436100
3622440372
3622446231
3622450870
3622456913
3622461185
3622468448
3622471500
3622478519
3622484989
3622490055
3622495120
3622500797
3622506778
3622511173
3622517215
3622521610
3622527835
3622533267
3622538516
3622544986
3622549747
3622555423
3622560977
3622568118
3622572452
3622578738
3622583438
3622590091
3622594730
3622601260
3622607059
3622613711
3622619815
3622627261
3622632998
3622638492
3622644534
3622649783
3622655276
3622661136
3622667911
3622672183
3622678836
3622683780
3622689212
3622694095
3622700381
3622705935
3622711062
3622716861
3622723758
3622729068
3622733584
3622738772
3622744632
3622750552
3622756167
3622762149
3622767825
3622771914
3622778079
3622780886
3622788882
3622794314
3622800173
3622804995
3622808962
3622815737
3622818484
3622824954
3622829836
3622836245
3622841006
3622846377
3622852114
3622856692
3622864870
3622871584
3622876772
3622883059
3622887270
3622893862
3622898073
3622905276
3622910586
3622915957
3622921694
3622925478
3622931338
3622937075
3622942507
3622948000
3622953615
3622958071
3622964174
3622970278
3622975710
3622981386
3622987246
3622993898
3623001772
3623007082
3623013063
3623017397
3623024233
3623030458
3623035280
3623041140
3623046694
3623051515
3623055788
3623062258
3623066469
3623072573
3623079042
3623084230
3623089418
3623094423
3623100343
3623106020
3623111147
3623117494
3623123476
3623128664
3623135256
3623139467
3623146791
3623152101
3623158937
3623165224
3623169618
3623175905
3623180727
3623187135
3623191835
3623197389
3623202882
3623207887
3623214418
3623218812
3623224550
3623228944
3623236024
3623241151
3623246339
3623251344
3623256471
3623262819
3623268068
3623274476
3623280458
3623285218
3623291688
3623297181
3623300233
3623307862
3623312257
3623318666
3623324037
3623327882
3623334352
3623338441
3623344422
3623350038
3623357423
3623367860
3623374330
3623378602
3623384645
3623389649
3623396913
3623401429
3623407655
3623411927
3623418336
3623423890
3623429139
3623434815
3623440247
3623445741
3623450745
3623456788
3623463013
3623468934
3623474305
3623479371
3623485047
3623490235
3623495911
3623499757
3623505799
3623511841
3623517335
3623524720
3623529908
3623535096
3623540284
3623545960
3623552064
3623558167
3623562989
3623569275
3623574524
3623580323
3623585755
3623592530
3623597107
3623603333
3623609497
3623613770
3623620545
3623626465
3623632019
3623638184
3623643250
3623649353
3623653321
3623660157
3623664368
3623671448
3623675781
3623683106
3623688782
3623693909
3623699219
3623704468
3623710022
3623715088
3623720764
3623727356
3623733032
3623737122
3623742981
3623748596
3623754517
3623758850
3623765625
3623771301
3623776794
3623783142
3623786682
3623792908
3623796570
3623803406
3623807556
3623815735
3623820923
3623826111
3623831543
3623836609
3623841614
3623847961
3623854370
3623859985
3623865417
3623869873
3623876342
3623880920
3623886779
3623891113
3623899414
3623904907
3623909118
3623915954
3623920166
3623926269
3623933105
3623938232
3623944030
3623949218
3623954650
3623959899
3623964477
3623969970
3623976074
3623981689
3623988403
3623993224
3624000427
3624007018
3624013427
3624020019
3624024230
3624029723
3624034057
3624040405
3624045348
3624051635
3624057433
3624063110
3624067748
3624072875
3624078429
3624083739
3624089538
3624095336
3624100585
3624106811
3624111205
3624115417
3624121886
3624126281
3624132689
3624138305
3624144164
3624150329
3624155578
3624161193
3624166320
3624171752
3624178283
3624183471
3624189330
3624194335
3624198668
3624204100
3624209594
3624215880
3624220580
3624227050
3624233153
3624238402
3624244078
3624249205
3624253905
3624259398
3624265441
3624271178
3624275756
3624281310
3624286315
3624291869
3624296996
3624303221
3624308409
3624312865
3624318724
3624323119
3624330260
3624333250
3624339842
3624345457
3624351073
3624357176
3624362364
3624367125
3624372374
3624377867
3624384947
3624390745
3624396727
3624401427
3624405699
3624412535
3624417601
3624424010
3624429808
3624435240
3624441099
3624444822
3624450743
3624456297
3624461302
3624467589
3624473082
3624477476
3624483519
3624487852
3624494200
3624499205
3624504881
3624510984
3624516172
3624522581
3624528074
3624533201
3624537840
3624544554
3624550962
3624555479
3624564085
3624570799
3624576292
3624580076
3624586118
3624592527
3624598142
3624602842
3624609312
3624613523
3624619260
3624623594
3624629331
3624636350
3624641782
3624646116
3624651426
3624657285
3624662717
3624669614
3624675046
3624680662
3624684812
3624690671
3624695188
3624702085
3624709226
3624714475
3624721494
3624726194
3624732725
3624737302
3624745054
3624752012
3624758542
3624763974
3624769590
3624774839
3624779294
3624785154
3624789609
3624795957
3624802365
3624808164
3624813840
3624819028
3624820859
3624828794
3624834104
3624840024
3624846860
3624851132
3624857480
3624861875
3624868222
3624873960
3624880551
3624887204
3624893002
3624897519
3624903134
3624909116
3624914182
3624920651
3624926206
3624931638
3624937009
3624942136
3624948544
3624954221
3624959592
3624964352
3624970639
3624975034
3624981747
3624986020
3624993100
3624996091
3625003110
3625009030
3625019955
3625027218
3625034726
3625041440
3625047604
3625052365
3625058957
3625063778
3625069760
3625075741
3625081173
3625086483
3625091549
3625097592
3625103024
3625108151
3625111996
3625119381
3625124081
3625130917
3625135922
3625141049
3625145932
3625150997
3625153927
3625161679
3625168514
3625174374
3625179806
3625185421
3625190304
3625195919
3625200924
3625208248
3625213802
3625218746
3625226009
3625229000
3625236263
3625242306
3625248531
3625254330
3625259762
3625265499
3625269405
3625275082
3625280331
3625287044
3625291622
3625297970
3625302425
3625308956
3625314266
3625319393
3625324337
3625330318
3625336300
3625341854
3625346920
3625352108
3625357418
3625362545
3625367672
3625373165
3625379268
3625384822
3625389705
3625395321
3625400570
3625405025
3625411739
3625416866
3625423824
3625429439
3625436702
3625441280
3625447872
3625451900
3625458126
3625468135
3625472469
3625479183
3625484798
3625489864
3625495174
3625502193
3625508174
3625512508
3625518672
3625523189
3625529170
3625534297
3625539729
3625546199
3625551692
3625556453
3625561763
3625567622
3625573177
3625578853
3625584651
3625590266
3625594783
3625601070
3625605586
3625611262
3625615535
3625623591
3625629939
3625634273
3625640132
3625644282
3625651057
3625656672
3625661982
3625666560
3625673030
3625677363
3625683955
3625687190
3625693904
3625698787
3625706111
3625711970
3625717158
3625722651
3625728205
3625734675
3625738887
3625745906
3625750605
3625757075
3625761592
3625768061
3625773371
3625778620
3625781916
3625790278
3625795588
3625801020
3625805720
3625810847
3625816767
3625822443
3625827631
3625833918
3625838618
3625844416
3625849543
3625854487
3625860895
3625865778
3625870295
3625875117
3625882380
3625887873
3625893000
3625898310
3625903620
3625908991
3625915278
3625921564
3625926142
3625933161
3625936213
3625943293
3625949030
3625954950
3625960810
3625966059
3625971613
3625977167
3625983515
3625988092
3625995295
3626001947
3626007502
3626013239
3626017511
3626023737
3626028009
3626035822
3626041803
3626047479
3626052667
3626058527
3626063593
3626069391
3626074274
3626081049
3626086298
3626090814
3626096979
3626103143
3626108270
3626111261
3626119135
3626124506
3626129938
3626135492
3626141107
3626146295
3626150690
3626156915
3626161615
3626168878
3626171930
3626179986
3626184381
3626189508
3626195856
3626202325
3626208490
3626213128
3626218744
3626224481
3626229303
3626235467
3626240716
3626247125
3626252679
3626256891
3626263299
3626268182
3626273370
3626278802
3626286859
3626291864
3626297662
3626303033
3626307428
3626313775
3626318109
3626323724
3626328179
3626335137
3626340509
3626345880
3626351373
3626356500
3626361932
3626367669
3626374871
3626379388
3626385186
3626390069
3626396417
3626402581
3626408135
3626413445
3626419183
3626425469
3626429803
3626436700
3626439751
3626447808
3626454705
3626460686
3626466546
3626470818
3626477898
3626481255
3626489434
3626494561
3626499993
3626506707
3626510735
3626516350
3626521477
3626528008
3626532525
3626538445
3626545159
3626550347
3626553399
3626560296
3626566155
3626572075
3626577446
3626582756
3626588982
3626592827
3626599053
3626602898
3626609734
3626615471
3626621208
3626625603
3626632073
3626635308
3626641838
3626646172
3626653801
3626659600
3626665093
3626669304
3626675713
3626681023
3626685051
3626690971
3626696953
3626702934
3626708428
3626713188
3626719048
3626724114
3626728630
3626735649
3626740227
3626747551
3626750725
3626757988
3626763420
3626768974
3626774040
3626779350
3626785576
3626791069
3626796562
3626801018
3626807426
3626812919
3626818657
3626825371
3626830803
3626836113
3626839958
3626846428
3626850334
3626856987
3626863212
3626867973
3626872306
3626879142
3626884941
3626890190
3626893303
3626900627
3626907096
3626913017
3626918327
3626922660
3626929740
3626937004
3626943962
3626951103
3626957939
3626964775
3626970390
3626976676
3626983085
3626989127
3626994743
3627000846
3627007255
3627010246
3627016898
3627021781
3627028251
3627034232
3627039970
3627045463
3627050651
3627056449
3627062186
3627067252
3627073356
3627079093
3627083610
3627089530
3627095878
3627100028
3627105765
3627112296
3627118766
3627123221
3627130057
3627133902
3627140067
3627145682
3627151542
3627156241
3627163321
3627168998
3627174308
3627179374
3627184562
3627190055
3627197379
3627202689
3627206961
3627212516
3627218070
3627223868
3627228141
3627234976
3627240958
3627248038
3627254386
3627260550
3627266532
3627272208
3627277884
3627283377
3627290274
3627294364
3627300467
3627306204
3627310965
3627317069
3627323294
3627328177
3627334280
3627339529
3627345877
3627350943
3627356131
3627361502
3627367667
3627373465
3627378165
3627386709
3627391775
3627397513
3627404349
3627408682
3627414541
3627420462
3627426626
3627431509
3627437430
3627440542
3627449026
3627454825
3627460806
3627465628
3627472281
3627477713
3627483389
3627489981
3627495474
3627501211
3627508047
3627512869
3627518606
3627523001
3627531484
3627537466
3627543203
3627547964
3627553274
3627558767
3627564016
3627568716
3627576223
3627581350
3627587820
3627593130
3627598379
3627603445
3627608450
3627615163
3627622060
3627626333
3627632070
3627637380
3627642873
3627648122
3627654836
3627659170
3627677602
3627682790
3627687856
3627693288
3627699697
3627705800
3627710256
3627716298
3627720754
3627727102
3627732290
3627738576
3627745351
3627749440
3627755910
3627760549
3627766652
3627770803
3627777761
3627784719
3627790578
3627796498
3627802053
3627806935
3627812978
3627818410
3627824147
3627829640
3627834157
3627839955
3627844167
3627850270
3627855824
3627861318
3627866994
3627872487
3627877675
3627882741
3627887929
3627892995
3627898549
3627905141
3627910024
3627915517
3627921193
3627925465
3627931508
3627936635
3627942372
3627949086
3627953358
3627959706
3627965871
3627972645
3627978383
3627983998
3627990101
3627995778
3628001271
3628006825
3628013173
3628018300
3628024159
3628030140
3628035634
3628040944
3628047108
3628052601
3628057728
3628062550
3628068959
3628075856
3628081044
3628089100
3628095143
3628101796
3628108021
3628115712
3628123097
3628129139
3628136769
3628143238
3628149403
3628156544
3628163807
3628170582
3628176075
3628183155
3628188954
3628195362
3628201222
3628208180
3628213917
3628219898
3628224781
3628230518
3628235950
3628241505
3628247608
3628253529
3628259266
3628263782
3628269764
3628275806
3628281055
3628286426
3628292896
3628299122
3628304920
3628310169
3628315784
3628321888
3628326221
3628331959
3628337696
3628343555
3628348316
3628355396
3628360523
3628365833
3628371387
3628378101
3628383960
3628389820
3628395313
3628399402
3628406482
3628410388
3628416919
3628422718
3628427967
3628435047
3628440418
3628445484
3628450794
3628455921
3628461658
3628468433
3628472888
3628478076
3628483325
3628488941
3628494251
3628499927
3628505908
3628512317
3628516711
3628521899
3628526294
3628533191
3628538257
3628544116
3628549914
3628555957
3628561572
3628567248
3628572558
3628577869
3628583667
3628590503
3628595996
3628600513
3628606433
3628610766
3628617907
3628623156
3628627368
3628633838
3628639392
3628645190
3628650378
3628655871
3628660937
3628666186
3628672473
3628677356
3628682910
3628688403
3628692797
3628698535
3628702990
3628709887
3628715136
3628721179
3628726489
3628731738
3628736804
3628742053
3628749255
3628756213
3628761645
3628766039
3628771899
3628776171
3628782397
3628786852
3628794299
3628800036
3628805529
3628810473
3628815783
3628821215
3628826403
3628832934
3628839281
3628844958
3628849291
3628856310
3628860644
3628866686
3628871508
3628878161
3628884447
3628889879
3628895251
3628900377
3628907274
3628911730
3628917406
3628921984
3628928881
3628933214
3628939989
3628943041
3628949572
3628955858
3628962267
3628968615
3628974413
3628980028
3628986620
3628991869
3628999132
3629004503
3629009813
3629014879
3629020555
3629026232
3629031053
3629036608
3629042650
3629047228
3629054125
3629059679
3629064989
3629070360
3629075609
3629079027
3629088304
3629092821
3629098070
3629103990
3629109666
3629115038
3629119127
3629125963
3629130540
3629137376
3629140489
3629147081
3629153368
3629158556
3629161485
3629169298
3629175035
3629180650
3629186449
3629190782
3629196885
3629201341
3629208238
3629214525
3629220018
3629225877
3629230943
3629235887
3629241014
3629246873
3629253892
3629259202
3629263719
3629270005
3629274461
3629280626
3629285081
3629292405
3629297898
3629303331
3629308946
3629314134
3629319444
3629323350
3629328599
3629336350
3629340806
3629346360
3629352159
3629356492
3629363389
3629368455
3629374680
3629381150
3629385850
3629391648
3629398545
3629402757
3629408006
3629413071
3629421067
3629426255
3629431870
3629436875
3629441392
3629447678
3629452073
3629458909
3629463853
3629470322
3629475693
3629480881
3629486252
3629491562
3629496995
3629502610
3629508408
3629514206
3629518845
3629524521
3629529282
3629535080
3629541550
3629545945
3629552659
3629557724
3629562851
3629568345
3629573471
3629579087
3629584824
3629590012
3629595383
3629603257
3629608017
3629616135
3629622055
3629628037
3629633652
3629639511
3629644638
3629650253
3629655747
3629660202
3629666184
3629671311
3629679306
3629684982
3629690170
3629695175
3629700668
3629706711
3629712814
3629719711
3629724960
3629731613
3629735825
3629741074
3629746567
3629752243
3629758530
3629764267
3629769211
3629773727
3629780380
3629785019
3629793258
3629799057
3629804672
3629809677
3629814804
3629820114
3629826156
3629832992
3629837631
3629845565
3629851486
3629856674
3629861984
3629867233
3629872482
3629878280
3629884506
3629890365
3629895858
3629901168
3629906906
3629912765
3629918136
3629924606
3629929305
3629933761
3629939865
3629944137
3629951461
3629954635
3629962997
3629968185
3629973739
3629980880
3629985702
3629992965
3629999130
3630005355
3630011092
3630016647
3630022384
3630027938
3630033431
3630037887
3630044967
3630051864
3630056319
3630062057
3630068038
3630074508
3630080733
3630087935
3630094283
3630100387
3630104964
3630112227
3630117965
3630123092
3630129622
3630134566
3630141158
3630145491
3630153182
3630158858
3630163924
3630168319
3630175826
3630181380
3630185591
3630191695
3630196028
3630201522
3630205916
3630212874
3630219588
3630224959
3630230208
3630235335
3630240340
3630245406
3630251082
3630257063
3630263228
3630268843
3630273482
3630279158
3630284956
3630289290
3630296248
3630300765
3630307356
3630312361
3630318404
3630323836
3630329207
3630334273
3630340010
3630345320
3630350447
3630357161
3630361311
3630367476
3630371748
3630379927
3630385298
3630390974
3630396223
3630402571
3630407637
3630413374
3630420881
3630425276
3630432051
3630437910
3630443464
3630449812
3630455122
3630459578
3630467207
3630471724
3630477339
3630483564
3630488142
3630493452
3630497724
3630504927
3630513777
3630520491
3630526045
3630531172
3630536848
3630541975
3630547712
3630553694
3630559614
3630563947
3630569380
3630575666
3630580915
3630585981
3630591047
3630597578
3630602949
3630608259
3630613386
3630619001
3630624311
3630629133
3630634687
3630640729
3630646467
3630651533
3630657697
3630662702
3630668317
3630674299
3630681074
3630685529
3630691938
3630697309
3630702680
3630707929
3630712446
3630719404
3630725080
3630731061
3630737958
3630742475
3630749494
3630756086
3630760724
3630767743
3630773725
3630779584
3630784406
3630790937
3630795575
3630802533
3630808759
3630814496
3630819989
3630825299
3630830670
3630835919
3630841962
3630848432
3630854047
3630858380
3630864362
3630869061
3630874432
3630878888
3630886334
3630892255
3630897748
3630902997
3630908368
3630913556
3630918683
3630923627
3630929486
3630935101
3630941449
3630948346
3630952679
3630959637
3630962811
3630970929
3630976117
3630981854
3630987591
3630991681
3630997296
3631002362
3631007855
3631013836
3631019818
3631024212
3631030377
3631036725
3631042035
3631045025
3631052838
3631059918
3631064373
3631069744
3631075116
3631081219
3631085247
3631091656
3631098431
3631103802
3631110028
3631114910
3631119427
3631125408
3631130352
3631135906
3631141705
3631147259
3631152386
3631157635
3631163250
3631168438
3631174542
3631181133
3631186871
3631191143
3631197308
3631201519
3631207256
3631211590
3631217693
3631224590
3631230083
3631233379
3631240581
3631245953
3631251202
3631256328
3631262737
3631269817
3631275432
3631279827
3631285442
3631290386
3631296123
3631302837
3631307903
3631314190
3631317241
3631323833
3631329937
3631335064
3631340374
3631347088
3631353252
3631357097
3631363628
3631369121
3631373882
3631378276
3631384624
3631389324
3631395916
3631400798
3631406414
3631411724
3631416912
3631422893
3631429546
3631435161
3631441020
3631447002
3631451701
3631459148
3631466167
3631472453
3631478313
3631484172
3631489177
3631494914
3631500285
3631504619
3631511150
3631515544
3631522014
3631527629
3631532756
3631538310
3631543803
3631548747
3631555400
3631561870
3631566325
3631572673
3631577067
3631583293
3631589824
3631595561
3631600505
3631605815
3631611491
3631617106
3631622294
3631628276
3631633830
3631638530
3631645366
3631650492
3631655680
3631661052
3631666301
3631672038
3631677653
3631683451
3631689494
3631695048
3631700968
3631705973
3631710429
3631717387
3631722148
3631729289
3631734599
3631739970
3631745036
3631750163
3631755900
3631761393
3631767558
3631772868
3631778483
3631783976
3631788981
3631794535
3631799784
3631804606
3631811015
3631815287
3631821146
3631825419
3631831522
3631836954
3631842509
3631848246
3631853861
3631861674
3631866556
3631872843
3631877726
3631885966
3631891642
3631897196
3631903055
3631907267
3631913187
3631918680
3631924784
3631931070
3631937479
3631942362
3631947916
3631953287
3631959208
3631962381
3631970926
3631976847
3631981607
3631988687
3631992899
3631999185
3632004862
3632010843
3632015665
3632022196
3632026651
3632032999
3632035990
3632042825
3632047769
3632053140
3632059854
3632065836
3632070474
3632079691
3632084634
3632091165
3632097513
3632102701
3632109720
3632114481
3632120828
3632125284
3632131937
3632138040
3632144022
3632150125
3632156167
3632160745
3632167581
3632172769
3632179727
3632183816
3632190652
3632196695
3632202188
3632208169
3632214273
3632219888
3632224588
3632230996
3632235208
3632242410
3632248086
3632253152
3632258889
3632264444
3632271218
3632276651
3632281900
3632287454
3632292642
3632296914
3632303994
3632309243
3632315225
3632318215
3632325479
3632331033
3632336404
3632341958
3632347817
3632354287
3632360452
3632365823
3632370950
3632377786
3632382607
3632388894
3632395547
3632401223
3632405984
3632411660
3632416604
3632421120
3632427651
3632432046
3632438515
3632444741
3632449990
3632455117
3632460366
3632465310
3632472878
3632478493
3632483071
3632488320
3632492592
3632498940
3632503884
3632511269
3632515847
3632523110
3632526162
3632533608
3632539528
3632544899
3632550331
3632556740
3632561623
3632567238
3632572853
3632577675
3632583229
3632589211
3632594887
3632601540
3632607094
3632612343
3632617470
3632622048
3632627175
3632633522
3632639565
3632644142
3632649758
3632655068
3632660622
3632665871
3632670143
3632677406
3632682228
3632689552
3632695168
3632700417
3632705482
3632710670
3632715736
3632721229
3632727699
3632733375
3632738686
3632744789
3632750648
3632755043
3632762367
3632769142
3632774208
3632779518
3632785011
3632790321
3632795692
3632802162
3632808571
3632813636
3632817848
3632824257
3632828590
3632834633
3632837562
3632845253
3632851966
3632857277
3632862526
3632867591
3632872291
3632877540
3632882911
3632889137
3632894203
3632899940
3632905921
3632910438
3632916969
3632921424
3632927162
3632934181
3632939613
3632944373
3632949684
3632954627
3632959754
3632965003
3632971290
3632977760
3632983436
3632988624
3632994422
3632998939
3633004493
3633010230
3633016883
3633022681
3633028052
3633033729
3633039405
3633044654
3633050757
3633055701
3633061744
3633066138
3633072669
3633078284
3633083350
3633088843
3633094459
3633099891
3633105933
3633111792
3633119300
3633124793
3633128150
3633136084
3633142798
3633148536
3633153479
3633159034
3633164649
3633168982
3633175330
3633179908
3633187049
3633190039
3633196997
3633202796
3633207984
3633213233
3633218970
3633224951
3633228980
3633234717
3633239844
3633245337
3633251013
3633255957
3633263648
3633269385
3633273718
3633280066
3633284949
3633290381
3633293372
3633300391
3633307165
3633311377
3633318030
3633324377
3633330847
3633336584
3633341894
3633348303
3633354101
3633359839
3633365027
3633369360
3633375525
3633379919
3633387243
3633393347
3633398901
3633404089
3633409277
3633415014
3633420263
3633425329
3633431677
3633438147
3633441931
3633448523
3633452795
3633459082
3633463476
3633469946
3633475439
3633480871
3633486120
3633491247
3633496679
3633501989
3633508581
3633514379
3633520300
3633524755
3633530615
3633535070
3633541357
3633546911
3633553014
3633559850
3633564428
3633570470
3633576025
3633580663
3633585851
3633590856
3633596410
3633603246
3633607275
3633612951
3633618688
3633623876
3633629735
3633636327
3633641027
3633647619
3633652074
3633658178
3633663854
3633669164
3633674474
3633681737
3633687414
3633693334
3633698888
3633703649
3633711767
3633715123
3633723974
3633728612
3633733983
3633739354
3633744786
3633750829
3633756383
3633762059
3633766698
3633773839
3633776830
3633783910
3633789586
3633795262
3633800878
3633807652
3633814000
3633818578
3633824559
3633830724
3633835851
3633841283
3633847630
3633853246
3633858739
3633863255
3633868810
3633873753
3633879369
3633885045
3633889806
3633896092
3633902318
3633907445
3633912511
3633917760
3633923253
3633929234
3633935338
3633940648
3633946385
3633952061
3633956456
3633961766
3633967930
3633973729
3633979283
3633983738
3633989964
3633994420
3634000462
3634005406
3634011998
3634018528
3634024022
3634028355
3634033421
3634039341
3634044957
3634049717
3634056126
3634062657
3634067295
3634074131
3634077366
3634083897
3634088230
3634095371
3634101475
3634106602
3634112278
3634117588
3634123936
3634129551
3634134556
3634139012
3634145359
3634149693
3634156590
3634159580
3634166294
3634170689
3634178989
3634184910
3634188938
3634195835
3634199863
3634205845
3634211582
3634216892
3634224766
3634232212
3634238132
3634243442
3634248691
3634253879
3634256870
3634264377
3634270359
3634276218
3634281589
3634285923
3634292392
3634296909
3634304538
3634312046
3634317966
3634322117
3634327427
3634333835
3634339511
3634344699
3634350315
3634355197
3634360813
3634365879
3634371616
3634377231
3634381504
3634388950
3634394565
3634400302
3634405002
3634410373
3634416904
3634420871
3634426853
3634432834
3634438022
3634443637
3634449863
3634455234
3634460605
3634463840
3634473056
3634478488
3634484348
3634491367
3634496005
3634503696
3634509433
3634515720
3634521884
3634527499
3634533115
3634538791
3634544589
3634550204
3634555514
3634561557
3634567294
3634572970
3634577304
3634583041
3634588778
3634594027
3634600314
3634607455
3634612948
3634618564
3634624850
3634630099
3634635775
3634642306
3634648471
3634654147
3634659213
3634664523
3634669894
3634675204
3634680941
3634687655
3634693331
3634697909
3634704074
3634708712
3634714449
3634718722
3634726046
3634732028
3634737643
3634741366
3634746920
3634752902
3634758028
3634763766
3634768465
3634774996
3634780611
3634786227
3634790072
3634796053
3634802035
3634806856
3634813387
3634819369
3634824679
3634828768
3634834383
3634840121
3634846285
3634851900
3634857454
3634862826
3634869051
3634873018
3634878634
3634884249
3634889193
3634895174
3634901827
3634905184
3634912691
3634915926
3634922335
3634928011
3634935335
3634939913
3634945040
3634950533
3634955660
3634960909
3634966524
3634971285
3634978304
3634984285
3634988558
3634995272
3635000215
3635005281
3635010896
3635016451
3635022371
3635028169
3635034090
3635040193
3635046175
3635051119
3635058138
3635065096
3635069368
3635077303
3635081941
3635087556
3635093599
3635098787
3635105745
3635111299
3635114534
3635123323
3635128633
3635133760
3635138093
3635144807
3635150850
3635156038
3635162446
3635166292
3635172029
3635177766
3635183320
3635189790
3635196199
3635200776
3635207246
3635212617
3635217805
3635224153
3635229768
3635234895
3635241975
3635247651
3635252351
3635259248
3635266084
3635271882
3635278535
3635282563
3635288850
3635294648
3635299714
3635304048
3635309846
3635314851
3635322114
3635327790
3635333161
3635338715
3635344026
3635348542
3635355195
3635362275
3635368256
3635373261
3635377717
3635384064
3635388520
3635394318
3635399140
3635406281
3635411591
3635417023
3635422211
3635427277
3635432648
3635438752
3635445466
3635451142
3635457062
3635461518
3635467866
3635472321
3635478913
3635486054
3635491852
3635496918
3635502167
3635507904
3635513031
3635518830
3635524872
3635529816
3635535370
3635540558
3635546357
3635551117
3635555451
3635563507
3635568817
3635575104
3635580597
3635585785
3635590790
3635595917
3635601410
3635607392
3635612885
3635618561
3635624603
3635629059
3635634491
3635639008
3635646515
3635654266
3635659943
3635663239
3635670441
3635676056
3635681244
3635685883
3635691376
3635697601
3635702911
3635708527
3635714142
3635719086
3635724518
3635731720
3635737213
3635743011
3635748504
3635754242
3635759857
3635763763
3635770721
3635777008
3635781952
3635787689
3635792633
3635796905
3635803131
3635807403
3635814178
3635819915
3635825470
3635830780
3635836029
3635841400
3635846649
3635852386
3635857452
3635863372
3635868499
3635874786
3635880157
3635885406
3635891326
3635896881
3635901885
3635909942
3635917449
3635923309
3635926421
3635933135
3635936248
3635947295
3635953216
3635956512
3635966399
3635972015
3635978790
3635981841
3635988921
3635993255
3636000457
3636006133
3636011565
3636016570
3636021697
3636029265
3636034270
3636040496
3636046233
3636051482
3636057464
3636062591
3636068206
3636074370
3636079314
3636084929
3636089690
3636095672
3636100676
3636106353
3636112700
3636118254
3636124663
3636129668
3636135649
3636140410
3636146209
3636151580
3636157378
3636164092
3636167327
3636174590
3636179595
3636186980
3636193144
3636199553
3636205351
3636210723
3636216460
3636222136
3636227019
3636232634
3636239470
3636244780
3636250517
3636256316
3636261443
3636266264
3636271452
3636276762
3636282683
3636289946
3636294279
3636299345
3636304900
3636310637
3636315092
3636321501
3636326262
3636334135
3636341276
3636345854
3636352141
3636356535
3636363310
3636368742
3636374357
3636379851
3636385038
3636392241
3636396147
3636404020
3636410246
3636415922
3636419340
3636426542
3636432768
3636438261
3636444731
3636449308
3636456266
3636461882
3636467070
3636472013
3636477140
3636483244
3636490019
3636495695
3636501371
3636506132
3636511808
3636516813
3636521269
3636527494
3636534635
3636540067
3636545438
3636550626
3636555998
3636561552
3636566679
3636573759
3636580778
3636586332
3636592374
3636596708
3636603544
3636606596
3636614286
3636620389
3636625699
3636632902
3636637540
3636644926
3636650663
3636656278
3636663175
3636667386
3636674344
3636679044
3636684903
3636689359
3636696866
3636701871
3636708646
3636714383
3636719632
3636725248
3636730680
3636736173
3636742093
3636748197
3636752835
3636759793
3636762845
3636770597
3636776334
3636782437
3636788114
3636793729
3636798551
3636804105
3636810269
3636815335
3636821805
3636828153
3636832791
3636839200
3636844510
3636848904
3636854153
3636860257
3636867093
3636872342
3636877957
3636883633
3636887906
3636893094
3636898709
3636904935
3636910001
3636915982
3636919888
3636924344
3636929532
3636934598
3636940701
3636944363
3636949673
3636953763
3636957486
3636962552
3636967679
3636971463
3636976773
3636981350
3636985867
3636989224
3636993313
3636998135
3637003628
3637008389
3637012478
3637016079
3637020840
3637024868
3637029385
3637035672
3637039700
3637043789
3637047695
3637051907
3637057461
3637062405
3637066189
3637072659
3637077175
3637081631
3637085659
3637089627
3637095364
3637099087
3637103359
3637107693
3637112637
3637117886
3637122158
3637127224
3637133022
3637138149
3637141934
3637148586
3637152798
3637158474
3637160976
3637166653
3637171291
3637176479
3637182217
3637186062
3637191250
3637195400
3637200405
3637204250
3637208218
3637214504
3637219448
3637224453
3637228847
3637232448
3637237392
3637242458
3637247707
3637251980
3637256496
3637260219
3637264858
3637269191
3637273708
3637280483
3637285549
3637289089
3637295070
3637299892
3637306484
3637310878
3637316799
3637321621
3637325344
3637330104
3637335781
3637340236
3637344204
3637347682
3637354030
3637358913
3637363857
3637368984
3637372707
3637377956
3637382228
3637385463
3637392604
3637397182
3637401943
3637406276
3637409633
3637414760
3637418483
3637423244
3637430080
3637434291
3637439052
3637442836
3637447963
3637452907
3637458583
3637463161
3637468288
3637474208
3637478419
3637482997
3637488368
3637492458
3637497951
3637503749
3637507106
3637514064
3637517360
3637524013
3637529567
3637536220
3637543361
3637551723
3637557460
3637563441
3637569240
3637574733
3637579738
3637583583
3637589625
3637593348
3637598170
3637603602
3637608668
3637612941
3637619410
3637624232
3637630580
3637634852
3637640284
3637644862
3637650294
3637654750
3637659510
3637665919
3637671412
3637675318
3637680812
3637686610
3637690455
3637695948
3637701258
3637707484
3637712061
3637717188
3637721766
3637727076
3637731532
3637736842
3637741114
3637750147
3637756434
3637761256
3637765772
3637771693
3637775294
3637782069
3637786829
3637793787
3637798304
3637804896
3637809778
3637814905
3637821070
3637825220
3637831446
3637836207
3637840967
3637847254
3637852930
3637857508
3637863245
3637868128
3637873926
3637877405
3637884058
3637889002
3637895289
3637900293
3637906763
3637911768
3637916956
3637921717
3637926844
3637937281
3637947046
3637958216
3637970178
3637977136
3637982752
3637989771
3637994592
3638001734
3638005152
3638012598
3638019495
3638023828
3638031580
3638038416
3638045862
3638049280
3638056055
3638060205
3638065942
3638070947
3638077905
3638084741
3638089014
3638094690
3638105798
3638114404
3638120264
3638128076
3638136438
3638145593
3638151513
3638159936
3638165674
3638172632
3638180322
3638185022
3638194177
3638200586
3638208825
3638215356
3638223962
3638230493
3638237085
3638242822
3638250451
3638256372
3638264123
3638271813
3638278283
3638286096
3638290612
3638298852
3638305566
3638315087
3638322472
3638328454
3638334924
3638342431
3638348229
3638356469
3638362450
3638370324
3638378075
3638380334
3638388390
3638392113
3638399499
3638403100
3638410241
3638415063
3638421349
3638429894
3638437646
3638444604
3638451195
3638453270
3638462121
3638467980
3638473473
3638480004
3638484826
3638492394
3638497033
3638502221
3638510216
3638516320
3638525353
3638532921
3638538048
3638543175
3638548241
3638554100
3638559716
3638567284
3638574730
3638584374
3638589806
3638597069
3638601036
3638607811
3638611900
3638617821
3638622521
3638630089
3638634972
3638641869
3638646751
3638655296
3638661827
3638670189
3638676475
3638684959
3638692833
3638699547
3638708092
3638714012
3638720238
3638727562
3638734031
3638742515
3638747703
3638757164
3638764000
3638770530
3638776939
3638784935
3638793113
3638803611
3638808189
3638816246
3638822715
3638830894
3638837913
3638846885
3638853477
3638860252
3638868919
3638875450
3638883933
3638890281
3638896446
3638905418
3638911582
3638918601
3638923484
3638929954
3638934165
3638939780
3638946189
3638949729
3638956504
3638959922
3638966636
3638972984
3638980247
3638986655
3638992637
3638998313
3639004111
3639008384
3639013389
3639020225
3639024924
3639030723
3639037253
3639041709
3639045127
3639055259
3639061057
3639077048
3639086997
3639096824
3639106528
3639112204
3639120566
3639125388
3639131125
3639136557
3639144065
3639147849
3639154990
3639161276
3639168662
3639175986
3639182639
3639188010
3639194052
3639199057
3639205222
3639212241
3639216879
3639223227
3639229758
3639234457
3639240317
3639248679
3639255026
3639264365
3639270895
3639277609
3639283469
3639293295
3639299582
3639306723
3639312643
3639320639
3639329001
3639336447
3639342245
3639346823
3639356955
3639361410
3639370749
3639375265
3639383993
3639390768
3639398275
3639406820
3639413351
3639419149
3639425985
3639433676
3639439779
3639448812
3639453207
3639462850
3639471029
3639477011
3639484945
3639494772
3639501241
3639509054
3639518514
3639523763
3639528890
3639534628
3639539816
3639547018
3639552084
3639556173
3639563375
3639568380
3639572897
3639579305
3639585226
3639592489
3639597249
3639601400
3639609640
3639613180
3639621663
3639628072
3639633993
3639635946
3639644857
3639648214
3639656270
3639661214
3639669515
3639674398
3639679525
3639684469
3639688924
3639692891
3639698629
3639705770
3639707723
3639717061
3639721883
3639725972
3639732869
3639739461
3639742879
3639749410
3639754415
3639760274
3639765828
3639771993
3639776631
3639782735
3639787251
3639792806
3639798177
3639806355
3639814412
3639820454
3639828572
3639835591
3639842061
3639850179
3639856526
3639864705
3639870930
3639879292
3639885274
3639891926
3639897725
3639904988
3639912373
3639921528
3639927022
3639934041
3639939229
3639945637
3639952778
3639959919
3639965779
3639972554
3639979878
3639987507
3639994465
3640001484
3640009175
3640017353
3640024494
3640031330
3640038899
3640044575
3640050068
3640057881
3640062580
3640068012
3640072590
3640075947
3640083149
3640086445
3640093403
3640096638
3640103352
3640107929
3640115070
3640123188
3640130878
3640135761
3640140949
3640144794
3640151264
3640156025
3640161091
3640168171
3640172199
3640178669
3640183124
3640188618
3640194904
3640200275
3640205097
3640212116
3640217365
3640221210
3640226276
3640231647
3640234699
3640240680
3640245014
3640251423
3640256855
3640263630
3640267963
3640272175
3640276081
3640282550
3640286701
3640291401
3640297199
3640302326
3640307575
3640311542
3640316852
3640319843
3640326923
3640329975
3640337421
3640343036
3640348651
3640352069
3640357562
3640362140
3640368427
3640373248
3640378131
3640385455
3640390521
3640395160
3640400531
3640404865
3640410297
3640414142
3640419635
3640427264
3640432208
3640437701
3640442767
3640446735
3640452167
3640456073
3640462115
3640466449
3640469562
3640477252
3640480731
3640487384
3640491778
3640497150
3640501544
3640507648
3640512652
3640519671
3640524798
3640529376
3640534930
3640539630
3640543780
3640548175
3640554217
3640560016
3640564471
3640569659
3640574908
3640580401
3640584308
3640587298
3640594744
3640598223
3640605426
3640608844
3640616961
3640623736
3640628558
3640632342
3640643145
3640648944
3640653582
3640657305
3640664630
3640669024
3640678546
3640681964
3640689349
3640694842
3640700884
3640706561
3640711260
3640715899
3640721270
3640727374
3640732928
3640739336
3640743426
3640748858
3640755022
3640760088
3640763934
3640769488
3640775652
3640780596
3640785357
3640791338
3640797137
3640801653
3640805559
3640810564
3640818499
3640825213
3640829363
3640833880
3640839190
3640844500
3640848467
3640853533
3640859636
3640863054
3640870867
3640874590
3640881243
3640885515
3640889971
3640895769
3640900591
3640906023
3640912798
3640918413
3640924578
3640930071
3640935320
3640941118
3640945207
3640951006
3640956926
3640961748
3640966265
3640971819
3640977922
3640982622
3640986650
3640992693
3640997637
3641002580
3641008074
3641012346
3641018022
3641021928
3641029436
3641034746
3641040666
3641047136
3641051714
3641055498
3641060564
3641065935
3641070940
3641077226
3641083024
3641087358
3641093523
3641097429
3641103227
3641107255
3641110307
3641118913
3641124650
3641130388
3641135148
3641140886
3641144243
3641149247
3641153703
3641160112
3641164872
3641171525
3641174882
3641181352
3641187700
3641192521
3641198259
3641202592
3641208024
3641217363
3641222612
3641226884
3641230790
3641237748
3641242082
3641248307
3641253068
3641258866
3641263383
3641268510
3641273820
3641278642
3641283769
3641287492
3641292680
3641297624
3641305375
3641308976
3641314591
3641319047
3641323624
3641329423
3641336137
3641344376
3641354447
3641359879
3641370621
3641379960
3641392167
3641403519
3641411515
3641422135
3641430497
3641441849
3641452042
3641459610
3641469559
3641478165
3641491410
3641501969
3641511856
3641519181
3641531021
3641540848
3641553971
3641567276
3641576309
3641588944
3641595718
3641607254
3641616348
3641628677
3641636734
3641647842
3641655350
3641672562
3641681839
3641691971
3641703873
3641711868
3641724380
3641729812
3641744888
3641754165
3641764358
3641776321
3641781570
3641796707
3641806716
3641814773
3641827835
3641834671
3641844924
3641852737
3641867324
3641875686
3641884414
3641897048
3641904495
3641915664
3641925369
3641934097
3641943435
3641952407
3641963210
3641968154
3641981399
3641989883
3642000625
3642011062
3642019668
3642034499
3642042800
3642055251
3642070388
3642077773
3642088149
3642098159
3642107863
3642118117
3642127944
3642132826
3642145461
3642154128
3642163832
3642171767
3642184096
3642190810
3642200636
3642210158
3642218947
3642227309
3642238173
3642248854
3642257460
3642268080
3642277907
3642288161
3642294874
3642307631
3642316542
3642326368
3642334791
3642344374
3642354811
3642359633
3642374037
3642383253
3642393141
3642408338
3642418470
3642425794
3642440260
3642449537
3642459730
3642469251
3642477186
3642486341
3642498426
3642507520
3642518324
3642527906
3642537000
3642547437
3642555067
3642567518
3642577711
3642587171
3642594190
3642606214
3642615735
3642627210
3642638257
3642648389
3642658521
3642671338
3642676526
3642688245
3642698194
3642709424
3642717420
3642726148
3642736707
3642747266
3642755811
3642765759
3642774548
3642787488
3642795789
3642805676
3642817029
3642825757
3642837415
3642851392
3642858777
3642869275
3642879346
3642890820
3642900342
3642907971
3642921277
3642930127
3642938977
3642949536
3642957959
3642968518
3642977307
3642985669
3642993359
3643002331
3643012707
3643019726
3643033703
3643043102
3643052136
3643062512
3643069470
3643080700
3643091564
3643099743
3643111218
3643121593
3643130138
3643139538
3643149486
3643159985
3643172192
3643179821
3643190380
3643199962
3643209118
3643222179
3643237743
3643249035
3643258495
3643266430
3643278820
3643286632
3643299144
3643307079
3643315563
3643328319
3643336925
3643347484
3643357311
3643366100
3643378307
3643386241
3643398814
3643407726
3643414867
3643428233
3643436351
3643445445
3643457103
3643465160
3643477794
3643485362
3643497874
3643508739
3643515880
3643527903
3643538340
3643548472
3643557322
3643565074
3643577769
3643589183
3643598765
3643609141
3643615672
3643627879
3643637705
3643649363
3643659434
3643667368
3643679575
3643689585
3643699473
3643708506
3643716135
3643726206
3643735300
3643747019
3643758982
3643768259
3643777537
3643787729
3643797861
3643806833
3643815317
3643825815
3643836802
3643845774
3643856089
3643866404
3643877085
3643886240
3643895090
3643905344
3643912851
3643924082
3643932505
3643941233
3643952036
3643960642
3643970590
3643979135
3643988901
3643998056
3644009592
3644017831
3644028696
3644037302
3644046457
3644057565
3644067575
3644076852
3644084482
3644094491
3644101694
3644112619
3644121469
3644131540
3644142526
3644152719
3644162729
3644174020
3644183541
3644192453
3644199838
3644211373
3644221749
3644231576
3644240243
3644247445
3644259652
3644268685
3644277047
3644290719
3644296822
3644307381
3644319344
3644327340
3644341683
3644348946
3644361642
3644370736
3644379708
3644390267
3644397225
3644409432
3644419320
3644428414
3644437264
3644446114
3644455391
3644462471
3644474068
3644478829
3644494088
3644505989
3644517952
3644527107
3644535225
3644544991
3644554573
3644564888
3644574226
3644585030
3644593941
3644602486
3644613899
3644624397
3644634041
3644642952
3644650825
3644660164
3644667671
3644678230
3644683601
3644697944
3644707405
3644717354
3644727180
3644732185
3644744087
3644755012
3644762764
3644773872
3644783760
3644793952
3644803474
3644813056
3644822212
3644833442
3644842719
3644851631
3644861884
3644872444
3644879768
3644893745
3644903815
3644913764
3644922248
3644930793
3644941962
3644951789
3644962104
3644969855
3644978339
3644987556
3645000251
3645009528
3645020514
3645027533
3645040168
3645049933
3645058905
3645072028
3645078803
3645092658
3645101142
3645110236
3645120551
3645126715
3645138678
3645146369
3645157416
3645167975
3645177863
3645188361
3645198431
3645207526
3645215948
3645228949
3645236578
3645247076
3645256476
3645267523
3645276312
3645288031
3645299017
3645308783
3645319159
3645328680
3645336493
3645343634
3645350897
3645361578
3645374273
3645384100
3645393255
3645401800
3645409857
3645421026
3645426763
3645439276
3645448980
3645457342
3645471258
3645478094
3645488775
3645498418
3645506414
3645517950
3645527227
3645537908
3645547308
3645556585
3645568120
3645577337
3645587346
3645594182
3645606511
3645615484
3645627080
3645636968
3645642034
3645656621
3645665593
3645672429
3645683843
3645691167
3645703313
3645708257
3645720647
3645731572
3645740117
3645753179
3645761601
3645771245
3645779973
3645789555
3645800969
3645807927
3645820866
3645826665
3645840947
3645849431
3645856389
3645866948
3645877507
3645893742
3645904912
3645914555
3645924199
3645933720
3645945134
3645955876
3645966252
3645974369
3645985600
3645996220
3646006169
3646013920
3646023625
3646029850
3646041569
3646055607
3646062382
3646073185
3646080753
3646092777
3646102726
3646111637
3646122318
3646129032
3646142033
3646151798
3646161320
3646170658
3646184513
3646193668
3646202640
3646217411
3646229313
3646239322
3646250553
3646259159
3646270511
3646280033
3646290714
3646296695
3646310672
3646320682
3646329776
3646340763
3646352786
3646362369
3646374210
3646381046
3646392154
3646402286
3646410709
3646422000
3646433353
3646442813
3646452457
3646461307
3646471622
3646480105
3646492557
3646502688
3646513003
3646522891
3646532779
3646540713
3646552066
3646563723
3646579165
3646586978
3646596499
3646606509
3646615237
3646625918
3646635562
3646647036
3646652773
3646667544
3646676882
3646687014
3646697756
3646706301
3646715456
3646725466
3646737734
3646746096
3646753237
3646763735
3646773379
3646783816
3646794375
3646800966
3646813112
3646824160
3646833315
3646838503
3646852785
3646862673
3646871462
3646881899
3646893923
3646902040
3646914430
3646920290
3646932192
3646942079
3646952150
3646962709
3646969545
3646981508
3646988466
3646999452
3647010316
3647019533
3647031557
3647041505
3647051393
3647062196
3647072023
3647080751
3647090150
3647100831
3647108217
3647122377
3647133302
3647139833
3647150758
3647160096
3647171266
3647181398
3647189027
3647198976
3647206422
3647218324
3647227845
3647237306
3647246339
3647258790
3647269288
3647278199
3647287354
3647296998
3647305543
3647314759
3647323182
3647334840
3647345154
3647353944
3647366883
3647375062
3647386292
3647395142
3647403138
3647413636
3647422120
3647433777
3647443299
3647452637
3647464051
3647472107
3647482971
3647491699
3647500733
3647510010
3647519959
3647527161
3647539551
3647548645
3647557129
3647566467
3647576599
3647589478
3647601440
3647607788
3647618042
3647629028
3647639221
3647648376
3647655762
3647666992
3647672363
3647684692
3647696045
3647704895
3647714599
3647722473
3647735412
3647744690
3647753845
3647765441
3647775756
3647784240
3647796447
3647802734
3647814392
3647825134
3647834960
3647847534
3647858276
3647868102
3647879699
3647889587
3647901733
3647911681
3647921203
3647932189
3647939513
3647950194
3647961364
3647970214
3647981078
3647990111
3648002196
3648008239
3648019896
3648030639
3648040221
3648049865
3648061888
3648069640
3648080260
3648090453
3648103881
3648112548
3648121214
3648132689
3648140379
3648154173
3648163573
3648173827
3648184752
3648195799
3648205077
3648218138
3648224852
3648239256
3648252379
3648261290
3648271239
3648278135
3648290220
3648298521
3648310118
3648320067
3648329344
3648339537
3648348143
3648357298
3648367979
3648378111
3648388548
3648397154
3648406797
3648414305
3648423582
3648434812
3648444700
3648453733
3648464170
3648474546
3648486143
3648496763
3648505125
3648516355
3648524534
3648535398
3648540708
3648553220
3648561765
3648571226
3648580015
3648586973
3648599912
3648607847
3648615964
3648623777
3648633237
3648643491
3648651792
3648661069
3648668210
3648680722
3648693540
3648702878
3648712644
3648720578
3648732053
3648740598
3648749936
3648761533
3648769223
3648781613
3648791440
3648801083
3648812070
3648821164
3648832211
3648844479
3648854550
3648863400
3648870846
3648880490
3648888791
3648901486
3648911557
3648919735
3648932736
3648940182
3648950619
3648961178
3648974179
3648984249
3648991635
3649002377
3649011593
3649017636
3649029537
3649037899
3649046871
3649056271
3649065792
3649077450
3649086483
3649095760
3649103023
3649118099
3649127804
3649137447
3649149166
3649157711
3649167965
3649176815
3649186031
3649195553
3649206844
3649219417
3649228817
3649238948
3649246700
3649256160
3649264949
3649275264
3649284114
3649294246
3649303707
3649314327
3649324397
3649333736
3649342952
3649351741
3649360896
3649368465
3649381831
3649388789
3649398311
3649409358
3649419185
3649430537
3649438411
3649447261
3649458858
3649471370
3649479793
3649484370
3649495784
3649508662
3649514216
3649526790
3649534175
3649547969
3649556636
3649566645
3649578120
3649586054
3649596369
3649607112
3649617426
3649626704
3649637019
3649646357
3649653559
3649664545
3649674616
3649685297
3649692316
3649700312
3649712458
3649722529
3649731440
3649744013
3649751093
3649763422
3649773310
3649781733
3649790522
3649799311
3649809565
3649819452
3649827570
3649839228
3649847589
3649855463
3649863459
3649875238
3649886164
3649896234
3649909174
3649915460
3649927606
3649934015
3649945612
3649956476
3649966730
3649976740
3649984613
3649996881
3650007745
3650017694
3650028436
3650035272
3650046380
3650057489
3650065606
3650075189
3650085321
3650093377
3650105462
3650114312
3650124322
3650133355
3650143914
3650153436
3650163262
3650174981
3650184686
3650193841
3650206658
3650215447
3650225701
3650235223
3650244195
3650255242
3650264825
3650275140
3650284356
3650294732
3650303033
3650316582
3650326104
3650334588
3650347161
3650357476
3650368401
3650380364
3650386162
3650401726
3650411248
3650420098
3650430108
3650436943
3650447014
3650455498
3650465081
3650475579
3650483452
3650497002
3650508599
3650518364
3650528496
3650535332
3650546318
3650553948
3650565361
3650577202
3650586174
3650596306
3650604240
3650613762
3650621818
3650632194
3650642326
3650650627
3650661125
3650668388
3650680778
3650685722
3650694816
3650702202
3650709709
3650719169
3650725090
3650734550
3650741752
3650750419
3650756584
3650764518
