3592363240
3592366719
3592369831
3592373432
3592376850
3592380329
3592383930
3592387715
3592392231
3592396076
3592399494
3592403401
3592407551
3592412129
3592416279
3592420246
3592425373
3592429829
3592435322
3592439838
3592446186
3592451252
3592455708
3592460896
3592466694
3592484333
3592489277
3592495502
3592502521
3592510273
3592517231
3592524799
3592530903
3592538593
3592546161
3592549640
3592559650
3592566669
3592571979
3592580158
3592585407
3592594745
3592602375
3592610309
3592617511
3592624225
3592632343
3592640155
3592646808
3592654621
3592661029
3592669269
3592677143
3592683490
3592690631
3592697284
3592704669
3592713580
3592720355
3592726398
3592735492
3592743427
3592749896
3592760883
3592767780
3592776202
3592783710
3592790485
3592797870
3592804462
3592811481
3592819171
3592828326
3592834613
3592841327
3592849261
3592857928
3592865558
3592872699
3592882586
3592889361
3592896014
3592904437
3592911212
3592918963
3592925433
3592933062
3592941546
3592948016
3592954547
3592961138
3592970477
3592978472
3592985064
3592992449
3593000323
3593007952
3593014422
3593022601
3593029925
3593038897
3593044695
3593053118
3593059588
3593068072
3593075091
3593082537
3593091692
3593097796
3593105791
3593112017
3593120989
3593126848
3593135027
3593142595
3593149981
3593159441
3593167498
3593175371
3593183916
3593190996
3593197893
3593206072
3593214373
3593220781
3593227617
3593237749
3593244341
3593252458
3593258684
3593266191
3593273943
3593281816
3593288347
3593295793
3593302751
3593309709
3593316545
3593324053
3593331011
3593339433
3593348222
3593353410
3593363359
3593372514
3593378191
3593384660
3593394304
3593401811
3593409746
3593418535
3593423967
3593433244
3593440690
3593447587
3593456621
3593463273
3593471574
3593479631
3593487260
3593495866
3593505326
3593512345
3593520707
3593529191
3593534745
3593544511
3593551164
3593558244
3593567033
3593575883
3593582170
3593591264
3593598344
3593604752
3593614335
3593622331
3593631242
3593637711
3593646256
3593655656
3593663529
3593670731
3593679154
3593688309
3593695450
3593704056
3593712418
3593718461
3593727616
3593734940
3593742447
3593751175
3593757462
3593766190
3593773697
3593779923
3593787064
3593794327
3593802872
3593808548
3593817643
3593824540
3593833206
3593840714
3593848587
3593855057
3593862137
3593869827
3593876236
3593885147
3593892899
3593900406
3593908402
3593914383
3593921768
3593928482
3593933914
3593942520
3593949173
3593957657
3593963638
3593971146
3593979446
3593987625
3593995132
3594001053
3594009048
3594015457
3594022720
3594030838
3594040054
3594047806
3594053726
3594061050
3594068680
3594076492
3594082962
3594091812
3594099624
3594106704
3594115371
3594122024
3594128799
3594136917
3594146499
3594153640
3594160598
3594166763
3594174758
3594182510
3594188674
3594195510
3594204482
3594211562
3594218398
3594226821
3594233962
3594242507
3594250564
3594256789
3594264663
3594271011
3594278579
3594286574
3594293655
3594300918
3594307754
3594317885
3594325576
3594332046
3594341201
3594348525
3594356399
3594364333
3594371291
3594378920
3594387160
3594395156
3594403212
3594410109
3594416823
3594424880
3594432143
3594439223
3594447219
3594455458
3594464430
3594470839
3594479689
3594488112
3594495497
3594502333
3594509779
3594517348
3594524306
3594532729
3594541640
3594551894
3594561659
3594570631
3594577223
3594586195
3594593642
3594601271
3594610121
3594617262
3594624830
3594632033
3594639662
3594645704
3594653273
3594660536
3594668104
3594675978
3594684401
3594689161
3594699903
3594706007
3594713087
3594721144
3594727003
3594734083
3594740126
3594747145
3594753370
3594761793
3594768507
3594774732
3594780653
3594788343
3594794813
3594800489
3594806532
3594813429
3594820509
3594826978
3594832716
3594838270
3594844617
3594851392
3594857557
3594864088
3594870496
3594876356
3594882032
3594889234
3594894849
3594901380
3594905530
3594911512
3594917188
3594924024
3594929212
3594935071
3594940687
3594946607
3594952955
3594959119
3594965589
3594972120
3594977796
3594983411
3594988660
3594995008
3595000745
3595007764
3595013196
3595020337
3595027051
3595032727
3595038465
3595044141
3595051648
3595058240
3595064343
3595070935
3595075025
3595081983
3595086804
3595093335
3595099072
3595104443
3595109998
3595116712
3595122022
3595127087
3595133801
3595138806
3595143750
3595149854
3595156628
3595162366
3595167798
3595174023
3595179455
3595186841
3595192029
3595197949
3595203259
3595208203
3595214734
3595219494
3595226880
3595232495
3595237378
3595242627
3595248791
3595253491
3595260388
3595267102
3595272900
3595279431
3595284985
3595292248
3595297070
3595304577
3595310986
3595316113
3595323498
3595330456
3595335705
3595341564
3595346813
3595352795
3595358288
3595364880
3595371105
3595375744
3595381909
3595386486
3595392651
3595397411
3595403637
3595410656
3595414684
3595421703
3595425915
3595433117
3595437573
3595444164
3595449902
3595455151
3595460644
3595467236
3595471386
3595477978
3595483288
3595489818
3595494457
3595501903
3595506054
3595512279
3595518261
3595522289
3595529979
3595535595
3595540966
3595547252
3595552562
3595558117
3595563549
3595569347
3595574657
3595582897
3595588573
3595594799
3595601818
3595607311
3595611827
3595619823
3595625194
3595631114
3595637340
3595642955
3595648204
3595653758
3595660289
3595665172
3595672313
3595676830
3595683299
3595689708
3595694652
3595701061
3595708263
3595712962
3595719188
3595725536
3595729930
3595737560
3595742320
3595749095
3595754710
3595760020
3595765208
3595772411
3595778026
3595784129
3595789378
3595795726
3595800548
3595806529
3595811534
3595817698
3595823375
3595827708
3595833995
3595841136
3595850108
3595854564
3595860911
3595868113
3595874400
3595879893
3595887400
3595892588
3595899119
3595904551
3595909556
3595916148
3595922068
3595926890
3595933177
3595939341
3595944163
3595950633
3595955088
3595961192
3595966380
3595972605
3595978282
3595984507
3595989878
3595994639
3596001658
3596005747
3596014048
3596018565
3596025156
3596029917
3596036753
3596042612
3596047434
3596052805
3596060313
3596065745
3596069895
3596077952
3596082163
3596089243
3596094980
3596100229
3596106272
3596111643
3596117747
3596122996
3596128000
3596134958
3596141611
3596147043
3596152842
3596160410
3596164438
3596170603
3596176889
3596183176
3596188608
3596193125
3596200449
3596205393
3596210764
3596217112
3596222605
3596228281
3596233530
3596239328
3596246042
3596251352
3596257578
3596262338
3596268503
3596273569
3596281809
3596286936
3596293283
3596298654
3596304636
3596310068
3596316110
3596321542
3596326486
3596333261
3596339487
3596344186
3596349252
3596355905
3596361215
3596367624
3596372262
3596378732
3596384103
3596391366
3596399484
3596403818
3596410776
3596417550
3596424753
3596431100
3596437753
3596442392
3596448495
3596453622
3596461129
3596467843
3596473642
3596479135
3596485604
3596490548
3596496286
3596502633
3596507272
3596513375
3596519601
3596525216
3596529428
3596535653
3596541513
3596547128
3596553659
3596558297
3596565072
3596569955
3596576669
3596581185
3596587838
3596593942
3596600045
3596604073
3596610726
3596615853
3596622140
3596627145
3596635201
3596640450
3596646127
3596651498
3596657357
3596662606
3596668160
3596674874
3596679696
3596686593
3596691781
3596698678
3596703316
3596709725
3596716988
3596722664
3596727852
3596734749
3596740304
3596745125
3596751839
3596758065
3596763070
3596769295
3596774361
3596779610
3596785897
3596792672
3596797005
3596803902
3596811165
3596816719
3596823006
3596828316
3596832894
3596839669
3596844612
3596851387
3596856270
3596862557
3596867562
3596874397
3596880257
3596886482
3596892525
3596896797
3596904244
3596909920
3596915230
3596920906
3596926338
3596933357
3596940498
3596947945
3596954475
3596961616
3596967720
3596973213
3596979500
3596983711
3596990486
3596997139
3597002205
3597006904
3597013130
3597019111
3597025398
3597029243
3597035652
3597042061
3597046394
3597054207
3597059089
3597064460
3597070991
3597076240
3597082100
3597087349
3597092231
3597098884
3597103767
3597111885
3597115852
3597122016
3597128303
3597136360
3597142280
3597148200
3597153510
3597159187
3597164436
3597170234
3597176887
3597182624
3597187629
3597192634
3597199348
3597205695
3597211860
3597215949
3597222236
3597228095
3597234077
3597241584
3597246223
3597252814
3597258186
3597264899
3597269416
3597276130
3597281013
3597287665
3597292670
3597298835
3597306586
3597310859
3597317145
3597323066
3597328498
3597334113
3597340827
3597345832
3597352424
3597355170
3597363532
3597368232
3597375007
3597380439
3597386664
3597391364
3597397528
3597402533
3597408698
3597413336
3597420050
3597427558
3597431647
3597438178
3597443732
3597448981
3597455206
3597461188
3597466986
3597473517
3597481085
3597487555
3597493964
3597500922
3597506659
3597512518
3597519415
3597525946
3597531805
3597535773
3597541205
3597546393
3597553412
3597559454
3597565497
3597571478
3597578131
3597584784
3597589911
3597595770
3597601141
3597607306
3597613226
3597617804
3597622442
3597629522
3597634771
3597641546
3597645941
3597651983
3597656561
3597662115
3597669683
3597676458
3597682074
3597687445
3597693548
3597700872
3597705694
3597712896
3597718634
3597724310
3597728948
3597734564
3597740057
3597745672
3597751653
3597756903
3597764349
3597770513
3597774847
3597781622
3597787664
3597794256
3597798711
3597803106
3597809759
3597815801
3597820501
3597826849
3597832769
3597838873
3597844183
3597850103
3597858526
3597865057
3597870916
3597876348
3597882390
3597887701
3597894536
3597899602
3597906133
3597911992
3597919134
3597924810
3597931279
3597936895
3597942693
3597949407
3597955327
3597960820
3597968511
3597973943
3597983525
3597989568
3597996282
3598001531
3598008062
3598014348
3598019902
3598027471
3598033147
3598038274
3598043523
3598049687
3598056096
3598062627
3598067143
3598073247
3598079534
3598085881
3598091618
3598097051
3598102605
3598109563
3598115666
3598121342
3598126103
3598132268
3598137761
3598143193
3598148869
3598156010
3598160588
3598165898
3598171025
3598176091
3598182194
3598188359
3598193242
3598198796
3598203374
3598209416
3598216618
3598222661
3598228581
3598233647
3598239567
3598245060
3598250798
3598254765
3598261296
3598266911
3598272709
3598277714
3598283879
3598288945
3598294926
3598301030
3598306767
3598311222
3598317814
3598325566
3598331242
3598336491
3598342533
3598348515
3598353764
3598358769
3598365360
3598370426
3598376164
3598381168
3598386662
3598392338
3598398197
3598404423
3598410343
3598417240
3598423222
3598430424
3598437504
3598444401
3598449833
3598456852
3598462406
3598468693
3598474308
3598480045
3598484684
3598491031
3598497684
3598503055
3598507877
3598514774
3598520206
3598526737
3598533451
3598538578
3598542972
3598549015
3598554691
3598560428
3598565189
3598570865
3598577274
3598582706
3598587711
3598593387
3598599430
3598604251
3598610416
3598614688
3598620914
3598625675
3598631778
3598638492
3598644412
3598649356
3598653995
3598659793
3598665347
3598671756
3598677554
3598688113
3598694339
3598699954
3598704105
3598710086
3598715945
3598721317
3598725772
3598732059
3598737308
3598741641
3598749271
3598754336
3598759647
3598764896
3598769229
3598776980
3598782229
3598787356
3598792361
3598798465
3598804019
3598809329
3598814456
3598821292
3598826602
3598830752
3598836917
3598841433
3598847476
3598853457
3598858584
3598863162
3598868411
3598874575
3598881167
3598887210
3598893252
3598901614
3598907351
3598912295
3598918215
3598924136
3598929446
3598934573
3598939273
3598945010
3598948977
3598955203
3598962039
3598967593
3598970828
3598976199
3598982241
3598987856
3598993288
3599000491
3599005373
3599010806
3599016543
3599023013
3599028872
3599033022
3599039492
3599043825
3599051211
3599056338
3599062258
3599067446
3599072634
3599077883
3599080935
3599087282
3599093203
3599099306
3599104128
3599107851
3599114626
3599119326
3599126528
3599131594
3599137514
3599141848
3599147707
3599153627
3599160219
3599165529
3599171938
3599178041
3599184145
3599191713
3599199587
3599206484
3599210939
3599216249
3599222170
3599226259
3599231813
3599238344
3599243166
3599248964
3599254030
3599259523
3599264223
3599271059
3599275636
3599281923
3599288759
3599294313
3599299074
3599305238
3599313905
3599319826
3599325441
3599331361
3599337404
3599344728
3599350404
3599357057
3599360902
3599368165
3599372011
3599377626
3599383974
3599388734
3599394472
3599400026
3599405580
3599412599
3599417238
3599421754
3599428041
3599433351
3599438783
3599443116
3599451173
3599457277
3599463014
3599467653
3599472596
3599477845
3599484681
3599490968
3599496156
3599501710
3599506471
3599511659
3599517274
3599522645
3599528199
3599534242
3599539491
3599544923
3599551148
3599559876
3599565797
3599573426
3599576478
3599582520
3599589478
3599595094
3599599854
3599605775
3599610902
3599615357
3599621766
3599628114
3599633546
3599639649
3599645447
3599650452
3599658204
3599665101
3599669984
3599675965
3599682252
3599687684
3599694092
3599699341
3599705506
3599711121
3599717164
3599722779
3599727784
3599734620
3599740235
3599747376
3599752381
3599758912
3599767456
3599773377
3599781250
3599787903
3599794434
3599799744
3599806885
3599812866
3599818238
3599824585
3599829956
3599836060
3599841919
3599847778
3599854798
3599860535
3599865540
3599871399
3599877136
3599882080
3599887878
3599894409
3599899109
3599905273
3599911499
3599917358
3599922852
3599927063
3599934998
3599940002
3599945068
3599951355
3599955383
3599962158
3599966553
3599974060
3599980102
3599985107
3599990112
3599996887
3600002136
3600007202
3600013855
3600020447
3600025573
3600031128
3600036560
3600043396
3600049133
3600054443
3600061096
3600067016
3600071960
3600077636
3600083801
3600088256
3600094543
3600101135
3600107177
3600112365
3600118591
3600124023
3600129821
3600136962
3600143859
3600150085
3600154907
3600161254
3600165649
3600171813
3600177123
3600183349
3600189330
3600194885
3600200317
3600205993
3600212829
3600217467
3600224242
3600231017
3600237243
3600242736
3600249084
3600253051
3600260680
3600266051
3600270324
3600278014
3600282531
3600289794
3600295287
3600301024
3600307433
3600314757
3600323241
3600327269
3600334472
3600340575
3600345824
3600351806
3600357299
3600364257
3600369139
3600375548
3600382201
3600388121
3600392028
3600398375
3600405089
3600411315
3600415587
3600422240
3600428038
3600434264
3600440672
3600446593
3600453368
3600458373
3600464110
3600469237
3600474974
3600481017
3600486449
3600492125
3600497435
3600502989
3600509093
3600517210
3600524046
3600531370
3600536009
3600542479
3600548094
3600553160
3600559630
3600564513
3600573912
3600579771
3600585997
3600589476
3600595946
3600601805
3600607725
3600613096
3600619078
3600623594
3600628599
3600634520
3600640684
3600646910
3600652525
3600659178
3600663450
3600670103
3600675779
3600681883
3600687132
3600692808
3600698423
3600702940
3600709349
3600713743
3600721250
3600727049
3600732115
3600737852
3600741636
3600750669
3600755674
3600761045
3600767881
3600772337
3600777403
3600786741
3600792417
3600798154
3600803892
3600809812
3600814878
3600820554
3600826902
3600831846
3600837217
3600843381
3600848203
3600853635
3600859556
3600864561
3600869993
3600874082
3600879026
3600884885
3600889463
3600896970
3600902402
3600907285
3600912351
3600916318
3600923520
3600928891
3600935727
3600940427
3600946531
3600951108
3600957334
3600963376
3600969480
3600973996
3600978940
3600985105
3600990659
3600997434
3601003415
3601008847
3601012509
3601019101
3601023557
3601030576
3601036801
3601041745
3601048154
3601052243
3601057614
3601064389
3601068417
3601075498
3601081601
3601086789
3601094968
3601100522
3601106992
3601113339
3601119443
3601124753
3601130856
3601136166
3601140195
3601148434
3601153256
3601159543
3601165768
3601170956
3601176938
3601182919
3601189694
3601194943
3601199765
3601205990
3601211545
3601216244
3601224301
3601230160
3601236691
3601242794
3601248654
3601255185
3601261898
3601266964
3601273617
3601279110
3601284115
3601290036
3601296933
3601302243
3601307797
3601313473
3601319271
3601325253
3601332089
3601336666
3601342159
3601347836
3601352780
3601357784
3601363217
3601368404
3601374264
3601380184
3601383114
3601389401
3601395687
3601401791
3601406368
3601411800
3601417904
3601422848
3601427425
3601434444
3601439754
3601444881
3601450436
3601456661
3601462826
3601468929
3601479000
3601484310
3601489376
3601494930
3601500484
3601506954
3601511776
3601517208
3601522762
3601528804
3601534237
3601539486
3601545528
3601550838
3601555477
3601561519
3601566097
3601571346
3601576656
3601582637
3601587520
3601592708
3601598140
3601603816
3601610530
3601615352
3601622066
3601627437
3601633357
3601639217
3601646114
3601650813
3601655757
3601659236
3601665462
3601673396
3601679683
3601685420
3601690547
3601696468
3601702510
3601706477
3601713008
3601719051
3601724055
3601729488
3601734614
3601739741
3601745418
3601750545
3601756831
3601761470
3601766536
3601772151
3601777400
3601783992
3601789607
3601794734
3601801387
3601806880
3601811580
3601818049
3601822871
3601827571
3601832393
3601837825
3601843745
3601849665
3601855220
3601859797
3601864436
3601869990
3601875849
3601881404
3601887385
3601892085
3601898493
3601904170
3601909297
3601916865
3601921626
3601926997
3601932368
3601937983
3601943171
3601947505
3601954157
3601959345
3601964594
3601970026
3601976069
3601983027
3601989130
3601994379
3601997981
3602005000
3602010676
3602016291
3602023005
3602029841
3602035029
3602038691
3602046381
3602050898
3602057978
3602063532
3602069697
3602075983
3602081110
3602085688
3602092402
3602098444
3602106257
3602113093
3602119745
3602126581
3602133539
3602139521
3602146967
3602152338
3602157770
3602163630
3602168817
3602174860
3602180231
3602186518
3602193048
3602198603
3602203302
3602212458
3602218317
3602223261
3602228876
3602235346
3602241327
3602247370
3602252496
3602258783
3602264764
3602270197
3602276117
3602281915
3602287592
3602292596
3602297907
3602304926
3602311822
3602315790
3602322992
3602329095
3602334405
3602340387
3602344659
3602351007
3602357233
3602362970
3602369256
3602375177
3602381036
3602386590
3602391595
3602398797
3602404474
3602408929
3602414605
3602420282
3602426263
3602432122
3602438287
3602444391
3602450006
3602454644
3602460443
3602466912
3602473443
3602477838
3602483087
3602490472
3602495660
3602499627
3602505792
3602511773
3602517877
3602524224
3602530755
3602535333
3602542108
3602547967
3602554192
3602560540
3602566033
3602570123
3602577691
3602584161
3602591302
3602598992
3602602898
3602608758
3602616387
3602621941
3602627190
3602633843
3602639947
3602645318
3602651910
3602656853
3602662530
3602668023
3602672845
3602679619
3602684624
3602691399
3602697686
3602702324
3602707024
3602712456
3602717278
3602723565
3602730339
3602735711
3602740960
3602745049
3602751458
3602757378
3602764153
3602770378
3602775627
3602781182
3602786736
3602791863
3602798821
3602808708
3602816338
3602822563
3602831047
3602835686
3602840935
3602848198
3602854179
3602860100
3602865044
3602871697
3602877373
3602882500
3602890068
3602894524
3602899528
3602905205
3602911491
3602917900
3602924065
3602930839
3602936211
3602940849
3602945488
3602951347
3602957573
3602964165
3602970024
3602976005
3602981560
3602987785
3602993034
3602997795
3603004387
3603009514
3603016044
3603021049
3603027214
3603033805
3603040519
3603046074
3603051933
3603057975
3603062431
3603068473
3603075126
3603081840
3603087516
3603092704
3603098381
3603102348
3603110588
3603114433
3603120353
3603127128
3603131767
3603138419
3603143913
3603150688
3603155692
3603161674
3603166312
3603172538
3603179191
3603184684
3603190665
3603196342
3603201286
3603206840
3603211173
3603218803
3603223685
3603229362
3603235221
3603239310
3603245414
3603251945
3603257926
3603265189
3603269889
3603274894
3603279349
3603285026
3603292045
3603298758
3603305594
3603311454
3603316031
3603322196
3603329764
3603335502
3603341605
3603347831
3603353019
3603359793
3603364676
3603371146
3603378287
3603383597
3603390250
3603394766
3603401847
3603406790
3603412222
3603417899
3603423331
3603428214
3603433890
3603439566
3603446280
3603450064
3603457083
3603463065
3603468436
3603474478
3603480521
3603486075
3603491080
3603496573
3603502676
3603509512
3603516592
3603523978
3603531485
3603536978
3603543204
3603548575
3603554922
3603559744
3603565420
3603570181
3603575857
3603584768
3603589285
3603595144
3603600332
3603605581
3603612234
3603617544
3603623220
3603629019
3603633535
3603639639
3603644949
3603651724
3603657400
3603663870
3603668264
3603673147
3603680105
3603684927
3603691580
3603697744
3603703543
3603708486
3603714102
3603720144
3603726370
3603732717
3603738455
3603743276
3603748464
3603753164
3603757436
3603764028
3603768972
3603774648
3603780386
3603786306
3603791982
3603798391
3603804006
3603809988
3603815359
3603820119
3603825857
3603830617
3603837881
3603843740
3603850149
3603856191
3603861013
3603865713
3603871572
3603877431
3603882619
3603887807
3603892690
3603898427
3603905019
3603911672
3603917592
3603923696
3603929128
3603934621
3603940053
3603946157
3603955190
3603959523
3603966970
3603972768
3603979970
3603984670
3603991323
3603997609
3604002980
3604008412
3604013722
3604019521
3604023671
3604030995
3604036122
3604042348
3604047475
3604053151
3604059682
3604065236
3604071034
3604077443
3604083424
3604091237
3604096730
3604100758
3604106435
3604111684
3604117421
3604122914
3604128834
3604134938
3604139149
3604144398
3604150136
3604155324
3604161122
3604166432
3604171681
3604179188
3604185231
3604190358
3604196949
3604203663
3604209950
3604216908
3604222645
3604232472
3604239308
3604244557
3604251698
3604257862
3604263050
3604269520
3604276905
3604281666
3604287403
3604292835
3604299549
3604304615
3604311573
3604317982
3604324574
3604329518
3604335865
3604341663
3604347340
3604352284
3604358875
3604365223
3604370899
3604377064
3604381580
3604388721
3604393238
3604399769
3604406666
3604413319
3604418018
3604426990
3604433521
3604440662
3604445545
3604452137
3604458362
3604465565
3604470875
3604477283
3604483631
3604487781
3604493091
3604499683
3604504017
3604510486
3604516346
3604522388
3604528858
3604533252
3604540027
3604546497
3604552173
3604558399
3604564807
3604569568
3604574451
3604580249
3604585376
3604591480
3604596240
3604602771
3604609729
3604615650
3604621631
3604626026
3604632556
3604638721
3604644031
3604650379
3604657336
3604663745
3604668628
3604675281
3604680652
3604687488
3604694751
3604699207
3604705798
3604710864
3604716235
3604720691
3604727954
3604732959
3604738269
3604743945
3604749072
3604755176
3604763721
3604769458
3604774890
3604780505
3604785571
3604791247
3604796618
3604802050
3604807788
3604813098
3604818835
3604824511
3604829943
3604836352
3604843127
3604847888
3604854419
3604859851
3604865710
3604871447
3604876574
3604882250
3604887988
3604893420
3604900134
3604907580
3604911852
3604918933
3604924243
3604930468
3604936083
3604941760
3604948412
3604952868
3604958910
3604965136
3604973315
3604977770
3604984484
3604989428
3604995409
3605000536
3605006457
3605012255
3605018053
3605023302
3605028857
3605035021
3605041308
3605046252
3605050646
3605056689
3605062060
3605067980
3605073412
3605078356
3605083117
3605089098
3605094469
3605100573
3605106493
3605112780
3605118700
3605123827
3605129442
3605134325
3605142443
3605147325
3605153551
3605160265
3605167345
3605172899
3605177965
3605183702
3605189195
3605195665
3605202013
3605207079
3605212694
3605218858
3605224901
3605230882
3605236192
3605242235
3605247301
3605252245
3605257555
3605264269
3605270860
3605276964
3605282335
3605288560
3605292284
3605300035
3605305528
3605312303
3605317247
3605322923
3605328172
3605334520
3605342943
3605348680
3605355211
3605360399
3605366441
3605372606
3605378282
3605384569
3605390550
3605395372
3605401353
3605407090
3605413316
3605418504
3605423875
3605429673
3605436082
3605440721
3605445359
3605452012
3605457688
3605463487
3605470262
3605475633
3605480760
3605487107
3605492539
3605497605
3605502793
3605508897
3605514695
3605520738
3605526170
3605531175
3605537156
3605542649
3605548997
3605554063
3605560899
3605567307
3605573533
3605578294
3605583665
3605590379
3605596848
3605603989
3605608506
3605615098
3605619736
3605626206
3605631821
3605637314
3605641404
3605648972
3605654526
3605659531
3605665024
3605669785
3605676804
3605682724
3605688340
3605693589
3605699631
3605704453
3605710740
3605716477
3605722275
3605727524
3605731980
3605737168
3605743210
3605749009
3605755112
3605761948
3605766892
3605773850
3605779160
3605783921
3605790268
3605796799
3605802231
3605808029
3605813889
3605821579
3605827438
3605833237
3605839890
3605844650
3605851486
3605860642
3605865280
3605871506
3605876938
3605882919
3605888718
3605895004
3605901047
3605906906
3605911911
3605917709
3605924057
3605928207
3605934372
3605939438
3605945358
3605949814
3605955490
3605962265
3605966720
3605974045
3605978927
3605983871
3605989242
3605995468
3606000412
3606006454
3606011276
3606017379
3606024032
3606029525
3606034835
3606039169
3606046371
3606052780
3606059371
3606064254
3606069625
3606074630
3606081344
3606087509
3606092513
3606098983
3606104965
3606110153
3606116744
3606122787
3606129501
3606134933
3606140975
3606146346
3606152389
3606157821
3606162399
3606169234
3606173812
3606180465
3606186935
3606193099
3606197494
3606203780
3606208724
3606215316
3606220321
3606226668
3606233871
3606239486
3606244796
3606250716
3606255965
3606261519
3606266952
3606273421
3606278731
3606283797
3606290511
3606296920
3606301680
3606308577
3606313216
3606318587
3606324324
3606331038
3606337020
3606342452
3606348006
3606354781
3606363021
3606369368
3606375411
3606381331
3606387313
3606392439
3606399947
3606408736
3606414046
3606418990
3606424300
3606430830
3606436507
3606442000
3606448042
3606454512
3606459700
3606465987
3606470625
3606476851
3606481795
3606487898
3606492659
3606498823
3606503828
3606509932
3606515608
3606521162
3606527815
3606532881
3606538374
3606544722
3606549971
3606555586
3606560957
3606566694
3606573469
3606580183
3606585066
3606590925
3606597212
3606601851
3606608137
3606612715
3606619062
3606625715
3606629866
3606636396
3606642866
3606648115
3606653669
3606659101
3606665998
3606675520
3606680647
3606687055
3606692121
3606696943
3606703535
3606708784
3606715498
3606723005
3606727033
3606734541
3606739423
3606746015
3606752424
3606757551
3606763837
3606768293
3606772810
3606778425
3606783918
3606789838
3606795026
3606801557
3606806440
3606811262
3606817426
3606822004
3606828412
3606833417
3606840131
3606847333
3606852765
3606857709
3606862287
3606868390
3606874677
3606880353
3606886274
3606890302
3606898237
3606905072
3606911969
3606918195
3606924482
3606931806
3606936261
3606944074
3606949079
3606955060
3606960004
3606966230
3606971295
3606975873
3606982038
3606987714
3606993573
3607000958
3607012860
3607028302
3607039044
3607050153
3607057965
3607066022
3607074506
3607082684
3607090436
3607098492
3607106976
3607113568
3607123334
3607129681
3607135907
3607144024
3607150128
3607157940
3607164349
3607172101
3607177899
3607183697
3607189373
3607194012
3607200299
3607205914
3607212201
3607215191
3607222577
3607230511
3607236981
3607242901
3607246868
3607253460
3607258953
3607265118
3607270184
3607276104
3607282269
3607287518
3607293194
3607298382
3607304730
3607309857
3607317120
3607322552
3607328899
3607335064
3607340923
3607347271
3607352520
3607358318
3607365032
3607371563
3607376263
3607381145
3607387310
3607392681
3607399578
3607406170
3607412273
3607417339
3607422771
3607427654
3607432659
3607439068
3607445720
3607450908
3607456218
3607462993
3607469280
3607475383
3607480816
3607486553
3607493023
3607498638
3607504314
3607510051
3607513897
3607521465
3607528972
3607533794
3607539897
3607544353
3607549297
3607555034
3607561077
3607567668
3607574382
3607577251
3607584758
3607588909
3607594951
3607599285
3607605632
3607611003
3607617107
3607622112
3607627849
3607633037
3607638225
3607644023
3607648540
3607655559
3607660747
3607665874
3607671794
3607676616
3607681377
3607689128
3607694560
3607700664
3607705669
3607711284
3607716167
3607721721
3607726909
3607732768
3607740397
3607745158
3607751445
3607756022
3607761699
3607766704
3607772807
3607779094
3607783244
3607789958
3607794780
3607799723
3607805278
3607810283
3607817057
3607822490
3607828532
3607833171
3607838725
3607844401
3607849894
3607854106
3607861064
3607866984
3607871806
3607876383
3607882609
3607887248
3607893778
3607900248
3607906352
3607911112
3607916911
3607921488
3607927165
3607931559
3607940104
3607944926
3607950602
3607956767
3607961832
3607968485
3607974406
3607981058
3607988261
3607993021
3607997965
3608004618
3608009684
3608015604
3608021219
3608027750
3608033243
3608037821
3608042521
3608048624
3608053507
3608059000
3608065348
3608070780
3608075785
3608081156
3608087565
3608092142
3608098124
3608106180
3608111063
3608115946
3608121866
3608126749
3608131266
3608137613
3608143656
3608149759
3608155924
3608159708
3608166361
3608170389
3608177164
3608182901
3608189249
3608194132
3608200479
3608207742
3608211832
3608219034
3608224466
3608232095
3608236917
3608243692
3608250955
3608257364
3608263284
3608269022
3608274576
3608280435
3608287027
3608292459
3608298746
3608303628
3608310220
3608316080
3608322183
3608327737
3608333658
3608339029
3608345010
3608350503
3608357950
3608363260
3608369363
3608374673
3608381021
3608385904
3608390786
3608397500
3608403054
3608409463
3608414956
3608421243
3608426004
3608432229
3608438272
3608444863
3608450051
3608456155
3608461648
3608467935
3608473367
3608478250
3608484902
3608491128
3608496682
3608503823
3608509438
3608515237
3608521768
3608526223
3608533425
3608540383
3608543923
3608551675
3608556374
3608561318
3608567117
3608572305
3608579568
3608584573
3608590798
3608596963
3608601113
3608607278
3608612404
3608618813
3608625832
3608630044
3608636513
3608642861
3608648293
3608654519
3608659890
3608665749
3608672463
3608676857
3608683693
3608688576
3608694863
3608699929
3608706459
3608711586
3608717812
3608723854
3608729531
3608734902
3608740944
3608746804
3608752724
3608759316
3608764260
3608769692
3608775673
3608782387
3608787575
3608792397
3608800026
3608807167
3608813027
3608819374
3608824684
3608831093
3608837257
3608842629
3608848976
3608855324
3608859413
3608865395
3608871620
3608876991
3608883461
3608891395
3608896522
3608902809
3608907814
3608913734
3608918068
3608924415
3608930885
3608935097
3608942909
3608947731
3608952980
3608958595
3608965370
3608971840
3608976844
3608982338
3608988868
3608995704
3609000038
3609007606
3609015297
3609024635
3609030921
3609038307
3609043678
3609051612
3609058998
3609066993
3609077247
3609083045
3609089454
3609096290
3609101966
3609108802
3609114662
3609120765
3609127784
3609132728
3609138404
3609145057
3609150367
3609155555
3609162147
3609167030
3609173621
3609178748
3609185035
3609190589
3609197181
3609203406
3609207618
3609214393
3609220191
3609225501
3609231910
3609237403
3609243873
3609249122
3609255591
3609260901
3609266700
3609272071
3609277747
3609283118
3609288672
3609295386
3609301123
3609307227
3609312171
3609318335
3609322547
3609332190
3609337500
3609344031
3609348914
3609355261
3609361121
3609368323
3609373328
3609380530
3609386572
3609393347
3609399878
3609405127
3609413184
3609418616
3609425696
3609431921
3609436377
3609442603
3609449377
3609453589
3609459509
3609466589
3609473425
3609477515
3609483801
3609491308
3609499182
3609503821
3609510596
3609516882
3609522986
3609527624
3609533789
3609538489
3609544714
3609551550
3609557959
3609563330
3609569250
3609574621
3609580542
3609585913
3609591589
3609598303
3609604406
3609611120
3609616491
3609623022
3609628576
3609635412
3609640905
3609648840
3609655798
3609660925
3609667761
3609672338
3609679052
3609683691
3609690649
3609694921
3609701513
3609706274
3609712499
3609717321
3609723669
3609730383
3609736730
3609741979
3609748022
3609753393
3609759069
3609764501
3609770116
3609776952
3609782506
3609787694
3609793249
3609798681
3609804906
3609811193
3609815893
3609824376
3609829809
3609835729
3609840978
3609846715
3609852147
3609858739
3609864110
3609870458
3609877111
3609882116
3609888219
3609893651
3609898595
3609905126
3609911779
3609921605
3609927709
3609931920
3609939733
3609944615
3609950963
3609955724
3609962010
3609967320
3609973058
3609979772
3609984227
3609990270
3609995641
3610001683
3610008275
3610013402
3610019383
3610023961
3610029698
3610036290
3610041844
3610047765
3610052708
3610057042
3610063573
3610069249
3610075230
3610079747
3610085667
3610092869
3610097142
3610103795
3610108494
3610115452
3610121983
3610126011
3610133030
3610138463
3610144505
3610153172
3610159276
3610164647
3610169713
3610176365
3610181736
3610187535
3610193333
3610199070
3610205479
3610209996
3610216343
3610221409
3610227391
3610232457
3610238194
3610243992
3610249302
3610255528
3610259922
3610268101
3610273045
3610278782
3610282871
3610288670
3610295750
3610299900
3610306126
3610311375
3610317783
3610323399
3610329075
3610333530
3610339329
3610346043
3610349888
3610357273
3610362583
3610369175
3610373142
3610379490
3610385471
3610391941
3610397983
3610402256
3610408298
3610415256
3610421177
3610428074
3610434604
3610439182
3610444675
3610451206
3610456882
3610461704
3610467746
3610472751
3610478428
3610484531
3610490268
3610496311
3610502048
3610508030
3610514682
3610520359
3610525730
3610531589
3610538059
3610543369
3610549655
3610554416
3610561435
3610568393
3610573581
3610578891
3610584934
3610590366
3610596042
3610602084
3610608676
3610613010
3610621494
3610626865
3610631931
3610637729
3610643466
3610649142
3610653720
3610659579
3610664523
3610669650
3610674106
3610678561
3610683932
3610688815
3610693515
3610697604
3610702548
3610706332
3610710422
3610715732
3610720614
3610724277
3610728854
3610733432
3610736789
3610742282
3610747958
3610753207
3610756991
3610760775
3610766879
3610772555
3610777438
3610782870
3610785067
3610790988
3610795932
3610799472
3610804660
3610807833
3610814181
3610817721
3610822543
3610826388
3610831881
3610836825
3610841098
3610845370
3610850863
3610856051
3610859347
3610864962
3610868380
3610873812
3610879244
3610883334
3610888949
3610894747
3610898959
3610903048
3610907076
3610912631
3610917880
3610923129
3610926791
3610931612
3610937228
3610941500
3610945956
3610951327
3610956087
3610960665
3610965670
3610969942
3610975313
3610980440
3610984896
3610988863
3610994356
3610999361
3611002596
3611007845
3611011385
3611017672
3611022860
3611027804
3611032198
3611035860
3611041903
3611047091
3611051180
3611058565
3611062777
3611067598
3611072603
3611076754
3611082491
3611087435
3611093660
3611098543
3611103853
3611108797
3611114595
3611120516
3611126314
3611131136
3611136385
3611140474
3611145601
3611148409
3611153963
3611157564
3611162874
3611168611
3611172762
3611176790
3611181185
3611185335
3611189852
3611193819
3611199556
3611203340
3611207246
3611212129
3611217256
3611220613
3611224519
3611231233
3611235445
3611239839
3611244844
3611249178
3611254793
3611259859
3611264925
3611269807
3611274141
3611278841
3611282503
3611287263
3611291475
3611296297
3611301729
3611305879
3611310884
3611315889
3611321077
3611328218
3611333345
3611338106
3611343171
3611346956
3611353120
3611358674
3611364045
3611369783
3611374849
3611380525
3611384004
3611389924
3611393892
3611400300
3611404267
3611409516
3611413545
3611420320
3611425202
3611429719
3611434663
3611441621
3611447724
3611452302
3611457490
3611462007
3611466340
3611471772
3611479524
3611486482
3611491364
3611496247
3611501801
3611505769
3611511201
3611517304
3611523286
3611528474
3611535188
3611540742
3611546296
3611553498
3611558076
3611564362
3611569550
3611574372
3611578034
3611583405
3611589631
3611594453
3611599885
3611604218
3611609772
3611614106
3611618928
3611623810
3611631135
3611638093
3611642365
3611647309
3611651398
3611657013
3611660492
3611668427
3611675019
3611679169
3611684723
3611688874
3611693940
3611700592
3611705475
3611710480
3611716645
3611721466
3611726898
3611731354
3611737213
3611742523
3611748139
3611753266
3611757660
3611763153
3611768036
3611773895
3611782501
3611787933
3611792389
3611797760
3611804901
3611810089
3611819428
3611823334
3611829681
3611834564
3611838837
3611846649
3611851776
3611856842
3611861175
3611866241
3611870758
3611878326
3611884247
3611888824
3611894134
3611900299
3611904022
3611908478
3611913849
3611919830
3611924225
3611931305
3611936371
3611940643
3611946991
3611952362
3611958648
3611963531
3611968841
3611973541
3611979034
3611984344
3611991485
3611996673
3612004608
3612010101
3612016693
3612023956
3612028533
3612036041
3612040313
3612044769
3612049285
3612056487
3612062164
3612067413
3612072112
3612077361
3612082549
3612087493
3612092681
3612096771
3612102874
3612107269
3612112029
3612117522
3612122833
3612127532
3612134673
3612141448
3612146880
3612152434
3612158416
3612163909
3612168120
3612174712
3612179412
3612186492
3612191558
3612197112
3612201934
3612207732
3612213592
3612218474
3612225127
3612232696
3612238433
3612243133
3612248809
3612255278
3612260527
3612266875
3612273406
3612278350
3612282378
3612289275
3612295440
3612300811
3612305754
3612310820
3612315154
3612321013
3612326506
3612332488
3612337493
3612343352
3612349028
3612352812
3612359709
3612366057
3612371184
3612375517
3612380705
3612386260
3612393218
3612399321
3612404326
3612410735
3612416167
3612422148
3612430083
3612436186
3612443816
3612448820
3612453886
3612459807
3612465361
3612471403
3612477141
3612484953
3612492583
3612497648
3612505644
3612511137
3612516813
3612523649
3612529020
3612534453
3612540312
3612546537
3612550810
3612556852
3612561308
3612567778
3612573637
3612580717
3612586515
3612592375
3612598234
3612603666
3612610197
3612616300
3612624052
3612629118
3612635038
3612640470
3612646879
3612652433
3612659330
3612663358
3612668974
3612674040
3612680265
3612686186
3612694486
3612700102
3612705045
3612710661
3612716398
3612722685
3612728849
3612734708
3612740507
3612746366
3612749235
3612756559
3612762479
3612768217
3612773771
3612779325
3612783964
3612790616
3612801114
3612806791
3612813627
3612821134
3612824552
3612831266
3612838773
3612844266
3612848478
3612855130
3612858915
3612864225
3612871305
3612878019
3612882840
3612887540
3612893216
3612898404
3612903653
3612911405
3612916410
3612923734
3612929288
3612933744
3612939725
3612945462
3612950772
3612955655
3612962552
3612969022
3612974637
3612977872
3612986905
3612992581
3612998502
3613002103
3613011197
3613017056
3613024625
3613029874
3613036465
3613042081
3613048733
3613060025
3613065579
3613071927
3613077237
3613085110
3613089749
3613095425
3613102933
3613107876
3613114651
3613118313
3613124905
3613129788
3613136563
3613141690
3613146756
3613154568
3613160611
3613165005
3613171780
3613177273
3613181546
3613186551
3613192898
3613197842
3613202847
3613208035
3613214138
3613219448
3613225186
3613228543
3613236172
3613241848
3613247097
3613251126
3613256985
3613261196
3613267483
3613272854
3613278347
3613284512
3613290005
3613294277
3613301235
3613305752
3613311123
3613316616
3613322170
3613325771
3613333218
3613338345
3613344021
3613351162
3613357265
3613363613
3613371059
3613375271
3613384304
3613387050
3613394008
3613398281
3613405239
3613409572
3613415310
3613420559
3613427944
3613435451
3613441311
3613447414
3613453090
3613458522
3613463771
3613468715
3613473781
3613479457
3613484584
3613488613
3613493984
3613499477
3613505153
3613511379
3613516750
3613520900
3613526943
3613532436
3613537563
3613542079
3613548000
3613553188
3613560939
3613565578
3613570094
3613576625
3613581325
3613587673
3613591274
3613598537
3613604396
3613610011
3613615016
3613622462
3613627040
3613633083
3613637904
3613644801
3613651393
3613657619
3613664455
3613670558
3613675258
3613680995
3613686366
3613689845
3613696620
3613703334
3613708034
3613713527
3613718043
3613723597
3613730067
3613734767
3613740077
3613747584
3613754603
3613758326
3613765223
3613768885
3613775904
3613780177
3613785792
3613793177
3613799281
3613803614
3613810694
3613815821
3613821192
3613825648
3613831690
3613836512
3613843958
3613848963
3613854518
3613859217
3613865077
3613871790
3613876612
3613881983
3613887782
3613894618
3613899073
3613904017
3613908656
3613914271
3613919337
3613924769
3613930445
3613938441
3613941981
3613949854
3613955347
3613960902
3613965479
3613971155
3613976404
3613984034
3613988734
3613995447
3614000330
3614005884
3614011988
3614016932
3614022364
3614027491
3614034327
3614039454
3614046839
3614052149
3614057215
3614063135
3614068567
3614074732
3614079981
3614084070
3614091150
3614095484
3614101038
3614105738
3614111353
3614117578
3614123499
3614130152
3614136194
3614142847
3614150537
3614157434
3614164087
3614168909
3614175928
3614182703
3614190027
3614195215
3614201318
3614208154
3614215173
3614221216
3614229517
3614237207
3614243188
3614249414
3614255212
3614259607
3614267358
3614274255
3614279565
3614284143
3614289941
3614296533
3614301538
3614307031
3614311914
3614320093
3614325952
3614329980
3614335962
3614340844
3614345544
3614349939
3614355554
3614362756
3614389367
3614392907
3614396630
3614400231
3614403649
3614407006
3614409814
3614413049
3614415917
3614418725
3614421472
3614423669
3614426049
3614430566
3614433557
3614436303
3614438500
3614441369
3614445153
3614447961
3614450952
3614453210
3614455407
3614457482
3614459619
3614461694
3614463891
3614465722
3614468041
3614470239
3614472436
3614474572
3614476769
3614478784
3614481835
3614484338
3614486352
3614488549
3614490624
3614492822
3614495202
3614497033
3614499169
3614501977
3614503808
3614505761
3614508385
3614511071
3614514062
3614516015
3614518822
3614520837
3614522729
3614524865
3614526757
3614528832
3614530907
3614532677
3614534753
3614536828
3614539269
3614541283
3614544274
3614546532
3614548974
3614551232
3614553307
3614555443
3614557580
3614559716
3614562096
3614564294
3614566186
3614568261
3614570885
3614573937
3614576440
3614578576
3614580407
3614582482
3614584496
3614586938
3614589257
3614591088
3614593529
3614595666
3614598229
3614599999
3614602135
3614604149
3614607079
3614609276
3614611107
3614613366
3614615441
3614617821
3614619774
3614622033
3614624108
3614625878
3614628441
3614631127
3614633873
3614637047
3614639184
3614641564
3614643700
3614645531
3614647912
3614649682
3614651818
3614654076
3614656029
3614657738
3614659935
3614662377
3614664269
3614667015
3614669945
3614672081
3614674401
3614676354
3614678551
3614680504
3614682518
3614684227
3614686364
3614688805
3614691002
3614693322
3614695824
3614698448
3614701073
3614703087
3614705162
3614707054
3614709008
3614711205
3614713280
3614715233
3614717247
3614719078
3614721520
3614723656
3614725731
3614728295
3614730858
3614733055
3614735253
3614737389
3614739525
3614741966
3614743981
3614746361
3614748253
3614750755
3614752587
3614754784
3614757103
3614759972
3614762169
3614764244
3614767113
3614769371
3614771690
3614774376
3614776146
3614778710
3614780602
3614782677
3614784508
3614786827
3614788719
3614791222
3614793724
3614795799
3614798058
3614800011
3614802391
3614804161
3614806175
3614808250
3614810631
3614812584
3614815086
3614817039
3614819420
3614822227
3614824425
3614826439
3614828209
3614830162
3614832054
3614834190
3614836021
3614838097
3614839745
3614842125
3614843956
3614845970
3614848473
3614850792
3614852684
3614854698
3614856895
3614859398
3614861229
3614863365
3614865257
3614867638
3614869652
3614871666
3614874107
3614876854
3614878746
3614881187
3614883446
3614885216
3614887169
3614889183
3614891319
3614893333
3614895042
3614897117
3614899254
3614900963
3614903709
3614905540
3614907676
3614909569
3614912010
3614913963
3614916038
3614917686
3614920006
3614922264
3614924339
3614926231
3614929222
3614931602
3614933922
3614935814
3614937706
3614939964
3614941795
3614943809
3614945640
3614947471
3614949485
3614951561
3614953636
3614955589
3614958336
3614960228
3614962242
3614964378
3614966392
3614968406
3614970420
3614972496
3614974510
3614976707
3614978660
3614981285
3614984520
3614986473
3614988365
3614990501
3614992393
3614994529
3614996727
3614998558
3615000511
3615002342
3615004478
3615006248
3615009117
3615011436
3615013999
3615015953
3615018089
3615020225
3615022056
3615023765
3615025962
3615027793
3615029869
3615031761
3615033836
3615037132
3615039390
3615041892
3615043662
3615045616
3615047569
3615049461
3615051231
3615053001
3615055198
3615057517
3615059165
3615061179
3615064903
3615067039
3615069053
3615071067
3615073203
3615075218
3615077354
3615079307
3615081260
3615083213
3615085166
3615087425
3615090354
3615092490
3615094505
3615096519
3615098533
3615101035
3615102805
3615105125
3615106773
3615109031
3615110740
3615112632
3615114463
3615116782
3615119468
3615121482
3615123130
3615125510
3615127525
3615129600
3615131309
3615133506
3615135520
3615138023
3615139793
3615142234
3615145164
3615147605
3615149558
3615151206
3615153709
3615155662
3615157554
3615159568
3615161338
3615163352
3615165488
3615167380
3615169578
3615172446
3615174399
3615176108
3615178245
3615180808
3615182639
3615184531
3615186606
3615188560
3615190269
3615192771
3615195151
3615197898
3615199973
3615202414
3615204246
3615206260
3615208091
3615209800
3615212180
3615214011
3615216086
3615218223
3615220176
3615222068
3615224570
3615226767
3615229148
3615230796
3615232932
3615234824
3615237082
3615238913
3615241172
3615243491
3615245688
3615247641
3615250449
3615253012
3615255393
3615257285
3615259238
3615261069
3615263327
3615265036
3615267173
3615268698
3615272361
3615274070
3615276206
3615278159
3615281028
3615283164
3615285422
3615287253
3615289206
3615291037
3615293357
3615295127
3615296897
3615299033
3615301047
3615303794
3615306540
3615309348
3615311545
3615313376
3615315390
3615317221
3615319907
3615322165
3615324057
3615326560
3615328452
3615330771
3615332663
3615334555
3615337058
3615339377
3615341513
3615343649
3615345725
3615347983
3615350485
3615352622
3615355124
3615357443
3615359763
3615361655
3615363791
3615366293
3615368735
3615370932
3615372946
3615375021
3615376975
3615379294
3615381186
3615383749
3615385519
3615387778
3615389914
3615391928
3615394003
3615396201
3615399008
3615400839
3615403220
3615405234
3615407370
3615409262
3615411642
3615413596
3615416220
3615418234
3615420126
3615422385
3615428305
3615430136
3615432577
3615434714
3615436789
3615438620
3615440451
3615442587
3615444296
3615446921
3615448874
3615450583
3615452658
3615454855
3615457724
3615459921
3615462424
3615464499
3615466635
3615468588
3615470785
3615473105
3615475241
3615477194
3615479696
3615481589
3615484213
3615486838
3615489340
3615491720
3615493735
3615495871
3615497763
3615500326
3615502279
3615504477
3615506491
3615508688
3615510519
3615512594
3615514486
3615516745
3615519613
3615521750
3615523886
3615525839
3615528280
3615530233
3615532553
3615534445
3615536520
3615539084
3615541403
3615543478
3615546469
3615549459
3615551840
3615554159
3615556234
3615558249
3615560385
3615562582
3615564413
3615566366
3615568624
3615570639
3615572775
3615574789
3615576986
3615578939
3615581564
3615583944
3615585653
3615587606
3615589926
3615592184
3615594198
3615596029
3615598104
3615601034
3615602865
3615604940
3615607443
3615610433
3615612875
3615614767
3615616720
3615618856
3615621237
3615623007
3615625143
3615626974
3615628866
3615630514
3615632833
3615635458
3615637472
3615639974
3615642233
3615644125
3615646200
3615648214
3615650411
3615652426
3615654379
3615656759
3615658651
3615660909
3615663290
3615665304
3615668295
3615670553
3615672994
3615675070
3615677023
3615679464
3615681417
3615683431
3615685507
3615687765
3615689596
3615691976
3615694051
3615696005
3615698141
3615700582
3615703085
3615705221
3615707418
3615709493
3615711691
3615713644
3615715536
3615719259
3615721883
3615723714
3615726400
3615729696
3615732442
3615734640
3615736654
3615738790
3615740987
3615743063
3615745260
3615747335
3615749715
3615751729
3615753866
3615755880
3615758199
3615760274
3615762716
3615765035
3615767110
3615769491
3615771566
3615773641
3615775777
3615777730
3615779622
3615782003
3615785726
3615787923
3615790120
3615792684
3615795492
3615797689
3615799947
3615801900
3615804159
3615806173
3615808126
3615810140
3615812276
3615814168
3615816610
3615818441
3615820943
3615823079
3615825887
3615828023
3615830220
3615832113
3615834310
3615836873
3615838887
3615841085
3615842977
3615845479
3615847554
3615849752
3615851705
3615854146
3615856771
3615858724
3615860677
3615862874
3615864888
3615867391
3615869344
3615871724
3615873433
3615875447
3615877584
3615879842
3615881795
3615884053
3615886495
3615888997
3615891133
3615893148
3615895589
3615897664
3615899800
3615901570
3615903646
3615905660
3615907613
3615909444
3615911824
3615914876
3615916829
3615919515
3615922689
3615925679
3615928670
3615931722
3615934651
3615937337
3615940450
3615943013
3615946309
3615949422
3615951924
3615954549
3615956990
3615959615
3615962422
3615964497
3615966573
3615968831
3615970967
3615973348
3615976033
3615978536
3615980855
3615983724
3615985860
3615988118
3615990743
3615993123
3615994893
3615997212
3615999410
3616002156
3616005025
3616007344
3616009236
3616012532
3616014546
3616017049
3616019429
3616021809
3616023885
3616026387
3616028523
3616030965
3616033406
3616036092
3616037984
3616040303
3616042805
3616045064
3616047505
3616049824
3616052327
3616054951
3616057637
3616059834
3616062276
3616064717
3616066853
3616069111
3616071248
3616073384
3616075886
3616078206
3616080525
3616082783
3616085347
3616088276
3616091145
3616093953
3616096150
3616098958
3616101216
3616103413
3616106343
3616108357
3616110432
3616113240
3616115498
3616117817
3616120015
3616122090
3616124714
3616127156
3616129414
3616132100
3616134297
3616137288
3616140461
3616142537
3616144307
3616146992
3616149250
3616151204
3616154011
3616156514
3616158589
3616160969
3616162739
3616164936
3616167439
3616169575
3616171894
3616174702
3616176960
3616179890
3616182576
3616185017
3616187214
3616190022
3616192158
3616194599
3616196858
3616198872
3616200947
3616203816
3616206074
3616208454
3616210835
3616213459
3616215962
3616218220
3616220600
3616222981
3616225422
3616228047
3616229756
3616231648
3616234150
3616236347
3616238423
3616240193
3616242329
3616244587
3616246784
3616248921
3616250813
3616253437
3616256184
3616258625
3616260517
3616262592
3616264912
3616267048
3616269001
3616271198
3616273396
3616275349
3616278156
3616280171
3616282124
3616284382
3616286823
3616289387
3616291340
3616293293
3616295185
3616297627
3616299641
3616301716
3616303425
3616305805
3616308247
3616310139
3616312519
3616314594
3616317646
3616320087
3616322346
3616324177
3616326252
3616328449
3616330463
3616332783
3616334736
3616337543
3616339435
3616341633
3616343647
3616345844
3616348164
3616350361
3616352375
3616354084
3616356220
3616358295
3616360676
3616362629
3616364765
3616367023
3616369343
3616371357
3616373554
3616376179
3616379047
3616382099
3616384357
3616386860
3616388935
3616391254
3616393207
3616395344
3616397236
3616399128
3616401447
3616403461
3616405475
3616407612
3616410541
3616412555
3616414631
3616416340
3616418781
3616420490
3616422565
3616424457
3616426471
3616428852
3616430927
3616433368
3616435444
3616438068
3616440326
3616442646
3616445148
3616447467
3616449482
3616451618
3616454120
3616456073
3616458271
3616460346
3616462299
3616464191
3616466144
3616468219
3616470722
3616472736
3616474811
3616477069
3616479206
3616481403
3616483234
3616485431
3616487690
3616490314
3616492023
3616494648
3616496784
3616499591
3616502582
3616504535
3616506732
3616508747
3616511249
3616513202
3616515155
3616517291
3616519428
3616521625
3616523517
3616525592
3616527606
3616530841
3616532977
3616534931
3616536701
3616538898
3616540912
3616542743
3616545062
3616546832
3616548786
3616551288
3616553668
3616555927
3616558185
3616560870
3616563129
3616565021
3616566791
3616568927
3616570880
3616573261
3616574909
3616577716
3616579608
3616581561
3616583698
3616585529
3616587543
3616590533
3616592609
3616594562
3616596698
3616599139
3616601337
3616603656
3616605670
3616608051
3616609943
3616612445
3616614398
3616616595
3616618915
3616621661
3616623798
3616625934
3616628314
3616630633
3616633136
3616634906
3616637103
3616639056
3616641254
3616643085
3616645160
3616647052
3616649493
3616652301
3616654010
3616656329
3616658160
3616660419
3616662677
3616664935
3616667071
3616668963
3616670978
3616673175
3616675372
3616677569
3616680011
3616682513
3616684955
3616687091
3616689105
3616690936
3616693194
3616695270
3616697406
3616699725
3616701617
3616703570
3616705523
3616707843
3616710223
3616712542
3616714496
3616716449
3616718829
3616721087
3616723224
3616725665
3616727862
3616729693
3616732196
3616734210
3616736346
3616738543
3616741412
3616744769
3616746661
3616748736
3616750811
3616753375
3616755511
3616757647
3616759295
3616761615
3616763507
3616765582
3616767779
3616769488
3616772174
3616774859
3616777362
3616779010
3616781390
3616783404
3616785540
3616787738
3616789691
3616791400
3616794024
3616796282
3616798419
3616802386
3616805010
3616806964
3616808917
3616810687
3616812945
3616815142
3616817156
3616819415
3616821490
3616823809
3616825640
3616828021
3616830035
3616832965
3616834796
3616836810
3616838641
3616840655
3616842791
3616844927
3616847064
3616849139
3616852007
3616853900
3616855975
3616858294
3616861041
3616863970
3616866045
3616867877
3616869952
3616872393
3616874285
3616876482
3616878680
3616880633
3616882525
3616884661
3616886797
3616888995
3616891375
3616893694
3616896075
3616897906
3616900103
3616901995
3616904131
3616906207
3616908404
3616910418
3616912737
3616914935
3616917071
3616919512
3616922564
3616925066
3616926836
3616929156
3616931109
3616933123
3616935076
3616936907
3616939226
3616941363
3616943316
3616945208
3616947405
3616949541
3616952410
3616954485
3616956560
3616958269
3616960284
3616962847
3616964678
3616967486
3616969500
3616971636
3616973833
3616975847
3616978655
3616982744
3616984698
3616986590
3616988665
3616991106
3616992937
3616995257
3616997454
3616999468
3617001238
3617003313
3617005449
3617007464
3617009417
3617011797
3617014177
3617016436
3617018694
3617021135
3617023027
3617025286
3617027300
3617029314
3617031267
3617033770
3617035662
3617037798
3617040667
3617042986
3617045183
3617047441
3617049883
3617051836
3617053850
3617055986
3617058123
3617060137
3617062090
3617064226
3617066179
3617068254
3617070391
3617073259
3617075212
3617077166
3617079058
3617081255
3617083391
3617085344
3617087236
3617089922
3617092668
3617094805
3617096880
3617099077
3617101702
3617104631
3617106645
3617108599
3617110552
3617112810
3617114824
3617117205
3617119158
3617121416
3617123308
3617125871
3617127519
3617129900
3617133074
3617135271
3617137224
3617139482
3617141619
3617143389
3617145830
3617147661
3617149431
3617151445
3617153398
3617155290
3617157671
3617160173
3617163286
3617165117
3617167497
3617169511
3617171343
3617173479
3617175493
3617177446
3617179460
3617181718
3617183733
3617186052
3617188005
3617191728
3617193742
3617195757
3617197588
3617199541
3617201555
3617203569
3617205522
3617207658
3617210283
3617212724
3617214799
3617216631
3617219377
3617222185
3617224443
3617226640
3617228776
3617230730
3617232744
3617234819
3617237138
3617239213
3617241472
3617243364
3617245317
3617248003
