3374032256
3374036345
3374043181
3374047087
3374052214
3374057219
3374061552
3374067229
3374072294
3374078581
3374084685
3374090117
3374094511
3374100493
3374104765
3374111235
3374117949
3374123869
3374130278
3374136381
3374143339
3374149382
3374156096
3374163054
3374170744
3374177153
3374182524
3374192045
3374199186
3374206266
3374213224
3374220121
3374226469
3374234403
3374242582
3374250700
3374258756
3374267606
3374272367
3374281828
3374289762
3374296171
3374304105
3374313627
3374319059
3374327421
3374337247
3374343839
3374350797
3374358243
3374364774
3374370695
3374378751
3374386869
3374394803
3374403165
3374413785
3374424100
3374433194
3374440580
3374447355
3374453641
3374460782
3374467801
3374474210
3374483670
3374490750
3374498197
3374505582
3374511930
3374517545
3374525113
3374535733
3374543118
3374550199
3374557034
3374563077
3374570279
3374577481
3374584927
3374593228
3374601224
3374609219
3374618619
3374625088
3374633633
3374643155
3374649075
3374659207
3374666653
3374672696
3374681729
3374690335
3374697903
3374704434
3374713650
3374721280
3374729641
3374736599
3374745999
3374753689
3374759793
3374768277
3374774319
3374786587
3374793789
3374800991
3374809109
3374818081
3374825344
3374831570
3374839565
3374848843
3374857083
3374861538
3374870632
3374877834
3374886257
3374893398
3374900845
3374909084
3374916470
3374924038
3374931240
3374938259
3374945583
3374952724
3374959865
3374968349
3374973903
3374982143
3374990139
3374996242
3375004238
3375012783
3375018947
3375028103
3375035244
3375041591
3375047451
3375056484
3375063076
3375072719
3375081203
3375089260
3375101589
3375109157
3375117580
3375125087
3375132472
3375137111
3375146572
3375154689
3375161952
3375167201
3375175929
3375184291
3375192287
3375200038
3375208034
3375214442
3375222438
3375229335
3375237392
3375243983
3375252223
3375259059
3375266994
3375273463
3375281520
3375289943
3375296229
3375305934
3375313014
3375320582
3375329066
3375336512
3375342372
3375349879
3375357692
3375365260
3375373255
3375378932
3375388026
3375393702
3375401698
3375409083
3375417689
3375426112
3375434352
3375441615
3375449854
3375456934
3375464076
3375471644
3375479334
3375484766
3375493861
3375502711
3375510035
3375517176
3375524561
3375530970
3375538843
3375547999
3375555933
3375562464
3375570154
3375577112
3375583094
3375591822
3375597803
3375605738
3375611780
3375619776
3375625940
3375636133
3375640894
3375650721
3375658228
3375666590
3375675440
3375683069
3375688562
3375696924
3375704187
3375713098
3375721277
3375729212
3375734766
3375743738
3375752161
3375760034
3375768274
3375776025
3375785486
3375794397
3375801782
3375808435
3375817895
3375824487
3375833398
3375845239
3375853235
3375859155
3375866846
3375873987
3375879541
3375888391
3375896997
3375904321
3375910791
3375919702
3375926538
3375934411
3375938562
3375950402
3375958093
3375963281
3375971154
3375978173
3375985376
3375993127
3376003381
3376013696
3376024438
3376034814
3376043115
3376055749
3376066247
3376080102
3376089501
3376098046
3376108605
3376117272
3376125329
3376134301
3376142174
3376150475
3376158410
3376166649
3376174828
3376182458
3376191002
3376199181
3376209191
3376217736
3376225609
3376232445
3376240380
3376250756
3376258873
3376266503
3376274193
3376282616
3376290734
3376299095
3376307213
3376314842
3376322228
3376329430
3376337181
3376344994
3376351952
3376360130
3376368553
3376376122
3376382896
3376389977
3376394737
3376403831
3376409325
3376417198
3376428429
3376435814
3376442161
3376446922
3376455162
3376461021
3376467674
3376473839
3376480125
3376485679
3376491112
3376498253
3376503624
3376509117
3376517235
3376523277
3376528648
3376534507
3376540306
3376546043
3376550987
3376557029
3376564903
3376570152
3376575523
3376581626
3376587486
3376594139
3376599021
3376605735
3376613304
3376617881
3376622459
3376627952
3376633323
3376639366
3376644737
3376650474
3376656638
3376662681
3376668235
3376672935
3376680503
3376687583
3376691550
3376698325
3376703574
3376710349
3376715598
3376720969
3376724998
3376731467
3376736899
3376742759
3376748130
3376753440
3376758445
3376763999
3376769858
3376776145
3376781516
3376786887
3376791099
3376798057
3376805015
3376810630
3376816733
3376821189
3376826865
3376831748
3376838157
3376845786
3376850180
3376856162
3376860434
3376866965
3376873740
3376878379
3376886008
3376890158
3376896140
3376901023
3376908164
3376913413
3376919211
3376925131
3376929892
3376935141
3376940939
3376946311
3376951315
3376957175
3376962912
3376966879
3376973532
3376977927
3376983603
3376989279
3376994955
3377000265
3377006125
3377012228
3377017111
3377023337
3377027975
3377035727
3377043234
3377048666
3377054465
3377059164
3377064963
3377070456
3377076681
3377083395
3377087607
3377093588
3377097860
3377104879
3377111166
3377115866
3377122397
3377129110
3377133688
3377140097
3377145102
3377150534
3377157553
3377165304
3377171896
3377177816
3377182882
3377188497
3377193807
3377200094
3377205038
3377211263
3377216635
3377221700
3377227438
3377233785
3377239584
3377245626
3377252035
3377256246
3377262472
3377266744
3377274130
3377279745
3377285421
3377290731
3377296285
3377302023
3377307027
3377313741
3377320394
3377325643
3377331075
3377336996
3377342611
3377346883
3377352987
3377359090
3377364950
3377370199
3377375509
3377380941
3377385946
3377391561
3377398275
3377403341
3377408773
3377414266
3377418844
3377423970
3377429097
3377434896
3377440694
3377446737
3377451680
3377458028
3377462300
3377468770
3377474691
3377480123
3377486287
3377490926
3377498067
3377503438
3377509664
3377516194
3377521932
3377527364
3377533711
3377539327
3377545247
3377551351
3377556966
3377563496
3377569112
3377574056
3377578389
3377584798
3377592427
3377596638
3377602864
3377609639
3377614949
3377621175
3377626118
3377632405
3377638081
3377643025
3377649373
3377653706
3377659138
3377665059
3377670857
3377676777
3377682515
3377687459
3377693501
3377699299
3377704548
3377710469
3377716267
3377721394
3377726643
3377732014
3377737324
3377743306
3377747822
3377754292
3377760090
3377765278
3377771443
3377778340
3377784443
3377789692
3377795246
3377801472
3377805256
3377811543
3377818134
3377824482
3377830341
3377835652
3377841145
3377847004
3377853169
3377858601
3377864033
3377870258
3377874409
3377880390
3377887226
3377892414
3377898945
3377903889
3377910786
3377913837
3377920612
3377926899
3377931782
3377938862
3377943256
3377950458
3377955585
3377960590
3377966511
3377971271
3377978351
3377984028
3377989460
3377996418
3378000812
3378007770
3378014972
3378020404
3378027424
3378031635
3378038288
3378043659
3378049274
3378056232
3378061115
3378067218
3378073200
3378078327
3378083576
3378089313
3378095111
3378101581
3378107013
3378113239
3378118122
3378125629
3378131976
3378137775
3378143146
3378147723
3378154010
3378159686
3378165302
3378170856
3378175494
3378181415
3378187946
3378193072
3378198505
3378203265
3378210162
3378215411
3378220355
3378227374
3378231525
3378238605
3378244037
3378249896
3378255878
3378260394
3378266253
3378272967
3378279254
3378285541
3378291400
3378297137
3378303119
3378309222
3378315631
3378322528
3378327472
3378334002
3378338153
3378344195
3378348712
3378355975
3378362628
3378368731
3378373370
3378378131
3378385211
3378392413
3378402423
3378407794
3378414080
3378419879
3378425494
3378429339
3378435259
3378441241
3378447039
3378452288
3378457781
3378463946
3378468218
3378475176
3378481280
3378487200
3378493182
3378498980
3378505694
3378510577
3378516253
3378522845
3378528155
3378534319
3378539080
3378545183
3378551104
3378557696
3378563738
3378569903
3378575518
3378581011
3378586443
3378592608
3378597307
3378603960
3378607134
3378613787
3378620256
3378625933
3378631548
3378637163
3378644670
3378650103
3378655291
3378659868
3378666094
3378670854
3378677385
3378682329
3378688860
3378694231
3378699053
3378704668
3378710100
3378715593
3378720781
3378728044
3378732866
3378738909
3378744158
3378750078
3378756426
3378762285
3378768449
3378773943
3378779131
3378785234
3378790117
3378797563
3378804155
3378809648
3378814409
3378819658
3378826372
3378832475
3378837602
3378844621
3378848772
3378854997
3378860673
3378866838
3378873369
3378877397
3378884172
3378888505
3378894182
3378899919
3378905778
3378912126
3378916337
3378923295
3378929643
3378934159
3378940690
3378947587
3378953324
3378959001
3378965898
3378971269
3378978776
3378984819
3378991044
3378996171
3379003251
3379007707
3379013932
3379019670
3379025651
3379031693
3379037187
3379043229
3379049271
3379054459
3379060624
3379065080
3379071976
3379077592
3379082536
3379090531
3379094315
3379102311
3379108170
3379113969
3379120377
3379125382
3379130753
3379137345
3379141434
3379148270
3379153275
3379158341
3379163712
3379168778
3379175004
3379179642
3379186905
3379191544
3379197892
3379200821
3379207169
3379213822
3379219010
3379226090
3379231156
3379236710
3379241898
3379246781
3379252396
3379258927
3379265457
3379271378
3379276749
3379283402
3379287918
3379294754
3379299698
3379305008
3379311722
3379315750
3379321854
3379328446
3379334122
3379339615
3379345657
3379351151
3379355423
3379363052
3379368546
3379373795
3379379837
3379386368
3379391800
3379397720
3379402725
3379409622
3379415420
3379422439
3379427811
3379433121
3379438553
3379445083
3379451187
3379457413
3379462051
3379468033
3379474869
3379480057
3379485916
3379491409
3379497268
3379502884
3379508499
3379513931
3379519180
3379524246
3379530105
3379536514
3379542312
3379547500
3379553787
3379558364
3379565017
3379571060
3379576980
3379583511
3379587661
3379593215
3379599929
3379605911
3379612747
3379617019
3379623855
3379629409
3379633498
3379640273
3379646438
3379653823
3379659194
3379664748
3379671218
3379675369
3379682143
3379687881
3379692214
3379698745
3379703323
3379709731
3379714492
3379720534
3379723769
3379733352
3379738845
3379743789
3379749648
3379756484
3379762038
3379768996
3379773330
3379779311
3379783950
3379791396
3379796340
3379802749
3379807631
3379819716
3379825576
3379831191
3379837844
3379843093
3379849807
3379855178
3379860305
3379867629
3379872878
3379879897
3379883620
3379890639
3379895705
3379900893
3379906020
3379912612
3379918227
3379923171
3379928420
3379933974
3379939345
3379946242
3379951247
3379958022
3379964613
3379970168
3379975478
3379981947
3379988051
3379993361
3379998793
3380004347
3380010573
3380015822
3380020888
3380026869
3380032484
3380037367
3380043898
3380049391
3380054335
3380060682
3380067640
3380073073
3380078322
3380084669
3380089979
3380096083
3380101820
3380108229
3380112867
3380119276
3380124403
3380129896
3380136122
3380141615
3380147047
3380153150
3380158583
3380163282
3380168592
3380175184
3380180616
3380185499
3380190321
3380196607
3380202894
3380208570
3380214185
3380221693
3380226820
3380232679
3380237867
3380244398
3380247389
3380256483
3380261671
3380267225
3380271741
3380277967
3380282789
3380287489
3380293775
3380300428
3380310804
3380318189
3380324232
3380329725
3380336255
3380341749
3380349866
3380355298
3380361219
3380367383
3380372327
3380377820
3380384839
3380389966
3380395459
3380398450
3380405652
3380411084
3380416089
3380423413
3380428662
3380435315
3380439710
3380446241
3380452039
3380458081
3380463208
3380469739
3380475171
3380480847
3380485852
3380491040
3380497327
3380503491
3380509107
3380514722
3380520886
3380525830
3380532056
3380537488
3380543042
3380548901
3380555432
3380561292
3380566541
3380571729
3380577222
3380583203
3380589673
3380595898
3380600842
3380607190
3380611951
3380619519
3380625500
3380630810
3380638318
3380642834
3380649426
3380655041
3380659863
3380665967
3380671338
3380676892
3380682995
3380688733
3380695263
3380700940
3380707043
3380711560
3380718457
3380721569
3380728711
3380734692
3380740673
3380745983
3380751293
3380756298
3380760510
3380767102
3380774182
3380779736
3380784802
3380790173
3380795361
3380800793
3380806713
3380813000
3380818249
3380824719
3380828747
3380834545
3380839916
3380845287
3380850964
3380858166
3380863720
3380868664
3380874340
3380880321
3380885326
3380890453
3380897411
3380902904
3380908214
3380915050
3380919811
3380928173
3380935009
3380939342
3380946972
3380951183
3380957226
3380962353
3380969188
3380975414
3380980053
3380986522
3380991893
3380997570
3381002941
3381008861
3381014049
3381018505
3381026622
3381032177
3381036571
3381043041
3381050975
3381056591
3381062511
3381068370
3381074901
3381079601
3381084300
3381091747
3381095897
3381102123
3381107494
3381112926
3381117259
3381124645
3381132274
3381137401
3381144786
3381149669
3381155040
3381161510
3381166270
3381172801
3381178661
3381183787
3381189891
3381194713
3381200328
3381207713
3381213389
3381220531
3381225291
3381231151
3381238414
3381244212
3381250377
3381256297
3381262401
3381267283
3381272960
3381278026
3381283641
3381289683
3381294200
3381300181
3381305796
3381311107
3381316050
3381322520
3381329295
3381333934
3381340403
3381345164
3381352244
3381357188
3381363414
3381368907
3381375315
3381380442
3381385630
3381390574
3381396983
3381404185
3381409373
3381415110
3381421092
3381427073
3381434153
3381439402
3381446116
3381450449
3381457346
3381460581
3381468638
3381473032
3381479990
3381485850
3381492136
3381497141
3381503001
3381508311
3381512888
3381518442
3381526194
3381532419
3381537852
3381543223
3381548594
3381554392
3381558970
3381565745
3381571482
3381576670
3381582224
3381587534
3381592173
3381597361
3381604319
3381610239
3381615549
3381620859
3381626169
3381631784
3381636728
3381643198
3381649424
3381654062
3381660105
3381667368
3381673654
3381679514
3381685861
3381690805
3381696543
3381702463
3381707956
3381713571
3381719797
3381724191
3381730966
3381735849
3381741647
3381747507
3381753366
3381759592
3381764841
3381771738
3381777536
3381784738
3381793283
3381798105
3381806161
3381811227
3381817270
3381823739
3381828866
3381835519
3381840890
3381846261
3381852426
3381856637
3381864328
3381869394
3381875436
3381880441
3381885568
3381892160
3381898324
3381903695
3381909433
3381914193
3381920419
3381927194
3381931893
3381937204
3381943307
3381948373
3381955148
3381960031
3381966989
3381971810
3381976510
3381981820
3381988168
3381993478
3382000436
3382004891
3382011605
3382016915
3382022103
3382027352
3382032540
3382040231
3382044686
3382050790
3382055978
3382061776
3382065377
3382071358
3382077218
3382082894
3382088204
3382092904
3382099435
3382104256
3382111092
3382116402
3382122079
3382127755
3382132027
3382138131
3382144173
3382149972
3382156197
3382161690
3382168221
3382173287
3382180001
3382196175
3382209114
3382218148
3382226632
3382233895
3382239998
3382245796
3382251717
3382257759
3382263191
3382269173
3382275032
3382280220
3382286202
3382291023
3382297554
3382302803
3382308479
3382313362
3382318855
3382321602
3382329109
3382336739
3382341438
3382346931
3382352364
3382358650
3382363411
3382369698
3382373543
3382381050
3382387642
3382391914
3382398933
3382403694
3382410042
3382418220
3382422920
3382428474
3382435249
3382441292
3382446724
3382451790
3382458748
3382464546
3382470039
3382475227
3382480049
3382485725
3382491035
3382497810
3382503975
3382509346
3382514595
3382519661
3382525520
3382529792
3382536384
3382541694
3382548225
3382553352
3382558357
3382565010
3382570930
3382575996
3382583259
3382588142
3382593269
3382598640
3382605354
3382611457
3382616645
3382623115
3382628608
3382633613
3382640205
3382645820
3382651862
3382658210
3382663337
3382669501
3382674628
3382680061
3382686225
3382691779
3382697455
3382703315
3382708381
3382714057
3382720161
3382726203
3382733161
3382739020
3382746345
3382752326
3382759833
3382766547
3382773017
3382779731
3382786078
3382793280
3382798957
3382805304
3382812201
3382818427
3382823859
3382829474
3382835089
3382840583
3382846320
3382851935
3382857672
3382862921
3382869696
3382875617
3382880255
3382886664
3382893439
3382898810
3382904547
3382909308
3382914984
3382920538
3382928046
3382934210
3382939215
3382945380
3382950812
3382956488
3382962164
3382968207
3382975348
3382980841
3382986395
3382991522
3382996588
3383002203
3383007025
3383014105
3383020880
3383025702
3383032110
3383037481
3383043646
3383050482
3383054999
3383061407
3383067022
3383072027
3383077276
3383083868
3383089056
3383093817
3383112188
3383118292
3383123907
3383128851
3383133245
3383140692
3383146551
3383151922
3383157293
3383162420
3383167974
3383173223
3383178533
3383183904
3383188909
3383195806
3383202642
3383208013
3383213018
3383218389
3383224493
3383229803
3383235052
3383240972
3383246832
3383250005
3383256780
3383263250
3383266973
3383272710
3383278692
3383284917
3383291509
3383297369
3383303167
3383308477
3383315191
3383321416
3383327459
3383332647
3383337285
3383343694
3383349492
3383354192
3383360906
3383366094
3383374944
3383381658
3383387090
3383393438
3383398320
3383404973
3383410955
3383416753
3383423345
3383427983
3383435247
3383442144
3383446904
3383453496
3383457707
3383462834
3383468389
3383473760
3383480657
3383486638
3383491399
3383496709
3383502202
3383507695
3383513616
3383520268
3383526067
3383531316
3383536504
3383541875
3383547185
3383552678
3383560979
3383566411
3383571110
3383576054
3383581853
3383585454
3383591008
3383597844
3383602910
3383608220
3383613652
3383618535
3383622746
3383629460
3383635930
3383641728
3383649174
3383655217
3383661808
3383665837
3383672123
3383679265
3383683354
3383690373
3383694401
3383700200
3383706486
3383711613
3383718144
3383723271
3383729374
3383734745
3383740483
3383748783
3383753666
3383760197
3383765141
3383771427
3383776371
3383782108
3383788212
3383794560
3383800175
3383806217
3383812138
3383817509
3383822575
3383828983
3383834965
3383840763
3383846989
3383851200
3383857731
3383863102
3383868900
3383875553
3383881718
3383887455
3383893314
3383898746
3383904728
3383909733
3383915958
3383922550
3383927921
3383934513
3383938724
3383946110
3383952030
3383958378
3383964542
3383969791
3383975345
3383981327
3383985660
3383992862
3383997501
3384003604
3384008426
3384013980
3384021488
3384026981
3384033512
3384039005
3384044376
3384050540
3384056522
3384062442
3384067508
3384074588
3384079349
3384085330
3384090152
3384095340
3384101077
3384108646
3384113895
3384119815
3384125369
3384130313
3384136722
3384142398
3384149478
3384154910
3384159915
3384166019
3384171817
3384177615
3384182803
3384188235
3384194705
3384198978
3384207583
3384213260
3384218875
3384224063
3384230105
3384235843
3384241275
3384247622
3384253421
3384258975
3384264895
3384269412
3384277163
3384282229
3384287722
3384292483
3384299685
3384304812
3384310794
3384317874
3384322451
3384328799
3384333193
3384341189
3384345217
3384351870
3384357424
3384362429
3384368228
3384373904
3384381228
3384386416
3384396426
3384402346
3384407412
3384414126
3384421023
3384425906
3384432558
3384437930
3384443423
3384449953
3384455325
3384461733
3384466860
3384473269
3384478030
3384483584
3384489382
3384495486
3384501040
3384506716
3384511049
3384516604
3384522585
3384527651
3384533205
3384538454
3384543886
3384549807
3384554079
3384561464
3384566591
3384573183
3384580080
3384584536
3384590212
3384594851
3384601686
3384606508
3384612490
3384619142
3384624147
3384629518
3384635927
3384641420
3384644533
3384652651
3384658937
3384664430
3384670595
3384675356
3384681276
3384687624
3384693849
3384699770
3384704530
3384709963
3384714662
3384720827
3384726564
3384731264
3384737672
3384742799
3384749452
3384754274
3384760255
3384766420
3384772645
3384778261
3384783632
3384790040
3384795167
3384801088
3384806276
3384812379
3384817995
3384823976
3384830018
3384835084
3384840211
3384845765
3384851503
3384858522
3384864747
3384870668
3384877382
3384882142
3384890138
3384896669
3384901063
3384907655
3384912965
3384918824
3384923951
3384930238
3384936708
3384941529
3384948426
3384953431
3384958314
3384965516
3384971986
3384976930
3384984254
3384989503
3384995484
3385001161
3385007996
3385013001
3385017274
3385024476
3385030640
3385035950
3385040955
3385046265
3385053101
3385058594
3385063538
3385070740
3385074952
3385081483
3385087525
3385092896
3385099549
3385104249
3385109254
3385115174
3385121033
3385127259
3385133790
3385140198
3385145691
3385150879
3385156312
3385161133
3385168641
3385173951
3385179993
3385186219
3385192261
3385198182
3385204407
3385210144
3385215576
3385220887
3385227112
3385231690
3385238098
3385244080
3385249573
3385255615
3385261170
3385265808
3385270020
3385276245
3385282227
3385287964
3385293213
3385298096
3385304016
3385310608
3385315247
3385321594
3385326904
3385332275
3385337646
3385342896
3385348694
3385353882
3385359131
3385366028
3385371277
3385377014
3385382568
3385388183
3385394348
3385400268
3385406677
3385415832
3385422607
3385428283
3385433471
3385439636
3385445862
3385450622
3385457519
3385462402
3385467651
3385474670
3385479919
3385486877
3385492187
3385497192
3385502502
3385508361
3385514038
3385520568
3385525817
3385531494
3385535949
3385542358
3385547790
3385552368
3385559020
3385564697
3385567748
3385575378
3385579711
3385585327
3385591491
3385597595
3385603942
3385609435
3385615173
3385621154
3385626952
3385634460
3385637939
3385645141
3385651611
3385657592
3385662902
3385668700
3385674865
3385681640
3385685729
3385691833
3385696593
3385703063
3385707763
3385713317
3385719909
3385724608
3385730895
3385736449
3385742186
3385747924
3385754332
3385759276
3385765441
3385771056
3385777098
3385781859
3385788024
3385793700
3385799254
3385804991
3385809874
3385816954
3385822570
3385828368
3385834288
3385839598
3385846068
3385851439
3385856993
3385863768
3385868712
3385875304
3385881957
3385887511
3385893126
3385899230
3385904234
3385911559
3385917174
3385923644
3385928099
3385933348
3385939574
3385945067
3385950804
3385955138
3385961424
3385967650
3385973204
3385978575
3385984434
3385989744
3385996519
3386001646
3386007567
3386012510
3386018980
3386024534
3386031370
3386037108
3386042051
3386048582
3386052977
3386059385
3386065184
3386071592
3386077147
3386081846
3386088255
3386093626
3386100096
3386106260
3386111021
3386118223
3386123228
3386129026
3386135069
3386140318
3386146055
3386152159
3386157591
3386163572
3386168882
3386174192
3386180601
3386186155
3386190672
3386196897
3386201658
3386206724
3386213010
3386217649
3386222837
3386227415
3386234739
3386240354
3386245359
3386252195
3386257871
3386263608
3386270444
3386275754
3386280759
3386286130
3386291013
3386298582
3386304197
3386310727
3386315122
3386321226
3386326658
3386332700
3386339353
3386344968
3386351194
3386355588
3386361753
3386367246
3386372617
3386378843
3386384519
3386390805
3386395566
3386401303
3386406369
3386412168
3386418088
3386424497
3386429502
3386435056
3386441159
3386446836
3386452268
3386458737
3386464658
3386470212
3386475827
3386481992
3386487241
3386494504
3386499387
3386506467
3386512448
3386518491
3386524167
3386528378
3386535397
3386539853
3386547482
3386553769
3386558957
3386565304
3386570859
3386575741
3386582272
3386586728
3386593197
3386596982
3386603757
3386611142
3386615231
3386621396
3386625546
3386631955
3386638546
3386645016
3386650509
3386656369
3386661618
3386667538
3386672543
3386678280
3386683224
3386689511
3386698605
3386703671
3386710263
3386714413
3386721554
3386728451
3386733456
3386739987
3386744747
3386751156
3386756161
3386761593
3386772152
3386778439
3386783322
3386788326
3386793575
3386800350
3386805416
3386810909
3386817013
3386822262
3386828609
3386834835
3386841427
3386846737
3386853817
3386859432
3386865108
3386870968
3386876095
3386884029
3386889400
3386895443
3386899593
3386905575
3386912227
3386918636
3386923519
3386930172
3386936031
3386938961
3386946712
3386952572
3386956539
3386963436
3386968624
3386973934
3386979854
3386984554
3386989009
3386994991
3387002376
3387007808
3387012874
3387019649
3387024227
3387029476
3387036251
3387041439
3387047298
3387051692
3387058345
3387062129
3387068416
3387076473
3387082393
3387087642
3387092708
3387097408
3387102657
3387108638
3387113948
3387121211
3387127071
3387132198
3387138606
3387144466
3387149409
3387155574
3387161128
3387167415
3387173274
3387179561
3387188472
3387193782
3387199702
3387205195
3387211360
3387217647
3387223262
3387228572
3387235042
3387239558
3387245479
3387250911
3387257319
3387264521
3387270991
3387276179
3387282893
3387288813
3387293086
3387299067
3387303218
3387309504
3387317073
3387322810
3387328486
3387332881
3387338557
3387345942
3387351801
3387358637
3387363886
3387369929
3387374690
3387381037
3387385798
3387391169
3387397395
3387402949
3387408564
3387413447
3387419123
3387423212
3387430354
3387436274
3387441584
3387447382
3387452143
3387459284
3387464655
3387470148
3387476191
3387483088
3387488276
3387493036
3387498835
3387504816
3387508967
3387516718
3387521235
3387528010
3387532831
3387537958
3387542841
3387549067
3387555536
3387561457
3387565790
3387572016
3387577753
3387583368
3387589533
3387596186
3387600397
3387607111
3387613336
3387617853
3387624384
3387630915
3387635736
3387641901
3387647699
3387653497
3387660211
3387665338
3387671747
3387677301
3387683405
3387687921
3387694086
3387699030
3387704950
3387712640
3387718317
3387723932
3387728937
3387734918
3387740533
3387745721
3387751825
3387756464
3387764093
3387769525
3387773614
3387780450
3387787103
3387792352
3387799005
3387804315
3387810602
3387814996
3387821588
3387828729
3387833429
3387840081
3387844476
3387850152
3387856622
3387862298
3387867974
3387873834
3387878656
3387883966
3387889825
3387894342
3387901055
3387907220
3387912591
3387918206
3387923883
3387928643
3387934014
3387939630
3387946343
3387952264
3387958978
3387964532
3387968865
3387973992
3387979974
3387986627
3387991753
3387996758
3388001946
3388008904
3388014153
3388023248
3388031121
3388038689
3388047173
3388053704
3388058526
3388064507
3388069817
3388074761
3388080071
3388086419
3388091302
3388098015
3388103692
3388109246
3388115777
3388121758
3388128350
3388133294
3388138665
3388144646
3388150078
3388157036
3388161553
3388168328
3388174736
3388179802
3388184868
3388191216
3388197258
3388202141
3388209099
3388214531
3388220635
3388225640
3388231255
3388237847
3388243157
3388249077
3388254448
3388259392
3388265251
3388272148
3388276970
3388283257
3388289909
3388294914
3388299919
3388305351
3388310600
3388316826
3388324028
3388329399
3388335747
3388342277
3388349296
3388354729
3388360039
3388365410
3388371452
3388378776
3388385368
3388395073
3388400017
3388406975
3388411796
3388417228
3388422966
3388429558
3388435600
3388440422
3388446098
3388452140
3388457817
3388464225
3388470451
3388474845
3388481803
3388487052
3388492363
3388499015
3388504570
3388510795
3388515739
3388521720
3388527641
3388533134
3388538566
3388544914
3388550712
3388557060
3388562003
3388568351
3388572685
3388580619
3388586051
3388591422
3388597648
3388602348
3388609794
3388615165
3388620780
3388627311
3388632316
3388639457
3388644584
3388649589
3388656669
3388662772
3388667716
3388673514
3388678763
3388684867
3388689994
3388696525
3388703361
3388708610
3388715018
3388719901
3388726371
3388730826
3388736380
3388742789
3388747367
3388754691
3388760062
3388765372
3388770377
3388775504
3388782340
3388788565
3388794242
3388800467
3388805594
3388812674
3388819388
3388825736
3388831900
3388837454
3388842703
3388848441
3388855033
3388860220
3388867301
3388873099
3388878165
3388884512
3388889945
3388896414
3388901724
3388909048
3388914664
3388919852
3388926871
3388931570
3388938711
3388943777
3388949515
3388954520
3388960196
3388965201
3388972647
3388978079
3388984183
3388989676
3388994314
3389000357
3389007071
3389012442
3389018484
3389024893
3389029165
3389036123
3389041006
3389046621
3389052176
3389057974
3389063223
3389069632
3389074453
3389080557
3389086416
3389092459
3389098257
3389105093
3389110525
3389115530
3389121023
3389128103
3389133413
3389139517
3389144766
3389149465
3389155691
3389161306
3389168203
3389173391
3389179434
3389184988
3389190298
3389195303
3389201345
3389207204
3389212637
3389218801
3389225271
3389229787
3389236440
3389241079
3389248952
3389253591
3389259939
3389264883
3389270620
3389276174
3389281789
3389288442
3389293569
3389299611
3389306203
3389311635
3389318349
3389323476
3389329702
3389334646
3389339772
3389346242
3389350759
3389358266
3389363515
3389369069
3389375234
3389379567
3389386159
3389391957
3389397756
3389404409
3389409047
3389415944
3389419057
3389427175
3389433339
3389440541
3389446523
3389451589
3389457143
3389460927
3389468129
3389473500
3389478017
3389484059
3389489919
3389495046
3389499318
3389505849
3389511464
3389517690
3389523793
3389529469
3389534901
3389540211
3389546498
3389552479
3389556935
3389562916
3389569325
3389575551
3389580433
3389585438
3389591603
3389597096
3389603139
3389607350
3389613759
3389619252
3389625233
3389630543
3389635670
3389641652
3389646840
3389653004
3389658009
3389663380
3389668995
3389674610
3389681446
3389685658
3389691334
3389695790
3389702015
3389708302
3389714283
3389720753
3389725697
3389730824
3389736805
3389742603
3389748280
3389753651
3389759205
3389764576
3389769398
3389775196
3389780323
3389786854
3389793324
3389798756
3389805164
3389812000
3389816517
3389822865
3389827869
3389833729
3389839893
3389845570
3389850208
3389856190
3389861439
3389866993
3389873157
3389879810
3389885975
3389890796
3389895130
3389901722
3389907398
3389913379
3389919605
3389924671
3389930225
3389935779
3389940784
3389947132
3389951709
3389959217
3389964588
3389970081
3389975025
3389980396
3389985889
3389991687
3389996997
3390001758
3390008411
3390012561
3390018909
3390023975
3390029956
3390035816
3390041431
3390046863
3390051502
3390057422
3390061694
3390070911
3390075122
3390080127
3390085925
3390091724
3390096912
3390102771
3390107654
3390114856
3390120837
3390126147
3390131518
3390135852
3390141894
3390146655
3390152637
3390160083
3390165515
3390171069
3390177173
3390181872
3390187610
3390194018
3390198901
3390205188
3390210681
3390216845
3390222644
3390228869
3390235644
3390241320
3390248278
3390253711
3390259875
3390264514
3390272143
3390278430
3390283740
3390289538
3390294726
3390299060
3390305834
3390311816
3390318835
3390327685
3390332018
3390338976
3390344653
3390350573
3390356127
3390361498
3390367236
3390373583
3390379015
3390384142
3390388476
3390394640
3390400622
3390406237
3390410387
3390416064
3390423144
3390428942
3390434679
3390440234
3390444384
3390449877
3390455858
3390461962
3390467882
3390472826
3390478319
3390483446
3390488695
3390494250
3390501146
3390506701
3390513659
3390519335
3390525866
3390530077
3390536486
3390541430
3390548265
3390554613
3390561022
3390566637
3390571093
3390577074
3390582994
3390588671
3390594896
3390599474
3390604784
3390610643
3390615160
3390622057
3390627550
3390633653
3390639330
3390644640
3390650926
3390655199
3390660021
3390668749
3390674181
3390679552
3390685289
3390689684
3390696397
3390701402
3390707445
3390714098
3390718492
3390724474
3390729723
3390734605
3390739549
3390747240
3390753343
3390759325
3390764696
3390769029
3390775133
3390779832
3390787706
3390794603
3390798814
3390805711
3390811876
3390816697
3390823045
3390828660
3390833970
3390839402
3390845201
3390849534
3390855149
3390861009
3390866807
3390872605
3390878587
3390883348
3390889451
3390894212
3390898973
3390904771
3390910996
3390917161
3390922410
3390926621
3390933030
3390938645
3390943833
3390952073
3390957810
3390963609
3390968064
3390973557
3390977769
3390984605
3390989915
3390995286
3391000962
3391006699
3391011887
3391016831
3391025010
3391030503
3391035874
3391041672
3391046982
3391052537
3391057664
3391063767
3391070725
3391075669
3391082932
3391088608
3391092637
3391099106
3391104355
3391112168
3391116929
3391123948
3391128952
3391133286
3391141831
3391147324
3391153122
3391158310
3391163620
3391169358
3391174668
3391180039
3391186631
3391191513
3391197373
3391202927
3391208969
3391215439
3391220505
3391225937
3391231919
3391236923
3391244431
3391249191
3391254501
3391260666
3391266159
3391272202
3391278122
3391282883
3391288437
3391294724
3391301620
3391306747
3391312119
3391318039
3391324203
3391330429
3391337570
3391343429
3391347763
3391354904
3391360458
3391365646
3391370773
3391377304
3391383285
3391389023
3391395370
3391400131
3391405502
3391412765
3391416732
3391424179
3391429733
3391435653
3391440475
3391445419
3391452072
3391458664
3391464340
3391469162
3391475082
3391480514
3391486495
3391492111
3391499618
3391505477
3391510665
3391515975
3391521224
3391527938
3391532516
3391540206
3391545822
3391551376
3391557052
3391563216
3391572311
3391577377
3391583724
3391589217
3391594527
3391599776
3391604537
3391609420
3391614913
3391619613
3391626449
3391630538
3391635055
3391640975
3391647445
3391653365
3391657455
3391664290
3391669356
3391675399
3391681807
3391687606
3391693465
3391699935
3391704879
3391711287
3391717635
3391723555
3391727584
3391734053
3391741072
3391746016
3391752425
3391757796
3391766097
3391772506
3391776900
3391784835
3391790023
3391795516
3391801192
3391807601
3391813887
3391819136
3391824019
3391830794
3391834944
3391840682
3391846358
3391853743
3391858443
3391864058
3391869307
3391873457
3391881026
3391886702
3391892439
3391897932
3391903426
3391909468
3391912886
3391920149
3391928206
3391932844
3391938460
3391944441
3391949019
3391955427
3391961165
3391966963
3391972761
3391977583
3391981917
3391988447
3391992964
3391999556
3392006819
3392010847
3392016462
3392022322
3392028242
3392032698
3392038069
3392044966
3392053144
3392059004
3392063154
3392069746
3392074751
3392081404
3392086897
3392091902
3392098616
3392103254
3392109602
3392115827
3392120344
3392128095
3392134016
3392139082
3392145246
3392150434
3392155683
3392161237
3392167402
3392172529
3392179792
3392185468
3392191938
3392197492
3392202924
3392210126
3392216779
3392221052
3392227277
3392232099
3392237958
3392244733
3392249433
3392256025
3392262128
3392267316
3392273664
3392279706
3392285016
3392291181
3392298139
3392302289
3392305463
3392310529
3392316694
3392320844
3392325361
3392329694
3392334394
3392338056
3392342633
3392346906
3392351361
3392355085
3392359296
3392363202
3392368024
3392372174
3392376630
3392380292
3392384503
3392388959
3392392987
3392397626
3392401593
3392406049
3392410565
3392414960
3392420331
3392424176
3392429486
3392432965
3392436871
3392439862
3392445172
3392449811
3392453229
3392459393
3392463910
3392467328
3392473859
3392478375
3392482465
3392486981
3392491071
3392494977
3392500043
3392504803
3392511090
3392518048
3392523602
3392528485
3392534405
3392538678
3392544659
3392551739
3392557721
3392562420
3392566205
3392570843
3392575482
3392580182
3392586041
3392590375
3392594525
3392600262
3392604413
3392609906
3392614789
3392619610
3392622540
3392628460
3392634320
3392639386
3392645184
3392651165
3392656536
3392661846
3392667218
3392671856
3392676556
3392680828
3392685467
3392690716
3392694073
3392699139
3392703045
3392708782
3392711712
3392717755
3392723919
3392727703
3392732952
3392736614
3392741375
3392745892
3392749188
3392755474
3392760601
3392764385
3392770245
3392774090
3392779339
3392783184
3392787823
3392791790
3392797405
3392801922
3392806377
3392811626
3392816265
3392822735
3392826824
3392832195
3392837566
3392842632
3392846783
3392852825
3392857403
3392862224
3392867412
3392872478
3392875469
3392881328
3392886028
3392890850
3392895366
3392899822
3392907329
3392911419
3392916118
3392921489
3392931682
3392936687
3392941326
3392946575
3392951702
3392956401
3392961162
3392965435
3392970867
3392975139
3392979228
3392986980
3392991619
3392996135
3393001934
3393007183
3393013652
3393018169
3393022930
3393028362
3393035198
3393040447
3393044902
3393049785
3393055522
3393058818
3393065410
3393069438
3393077312
3393080791
3393087932
3393091655
3393098613
3393102336
3393110332
3393114970
3393122478
3393129191
3393132915
3393141215
3393146342
3393155131
3393160991
3393166606
3393171977
3393177592
3393182414
3393187236
3393192668
3393198832
3393205119
3393210063
3393215129
3393220500
3393226542
3393231059
3393237223
3393243571
3393248820
3393254679
3393260173
3393265177
3393269389
3393275553
3393280619
3393287150
3393292582
3393297221
3393303080
3393308573
3393313029
3393319560
3393325541
3393332743
3393338297
3393343607
3393347025
3393352824
3393358256
3393367594
3393374125
3393379191
3393385294
3393392252
3393398295
3393403117
3393410624
3393418070
3393423624
3393429911
3393433878
3393440226
3393444987
3393451395
3393463663
3393470011
3393475809
3393481241
3393485209
3393492838
3393498209
3393504496
3393510599
3393516092
3393520853
3393527750
3393533915
3393540750
3393545084
3393552530
3393558634
3393563944
3393568827
3393576090
3393582193
3393586771
3393592996
3393599039
3393607462
3393614847
3393619852
3393625772
3393630045
3393634866
3393639810
3393648355
3393654092
3393659158
3393665811
3393671060
3393676004
3393683267
3393690347
3393699197
3393704752
3393712503
3393718423
3393724100
3393727945
3393734170
3393739480
3393744913
3393750345
3393755960
3393757913
3393767251
3393773416
3393777994
3393783670
3393789773
3393795266
3393798929
3393804727
3393809732
3393816446
3393821267
3393825845
3393831033
3393837442
3393840799
3393846353
3393852700
3393859170
3393865640
3393869790
3393876748
3393881448
3393885049
3393894448
3393899880
3393907937
3393913430
3393917642
3393923135
3393927957
3393932717
3393938088
3393944802
3393950906
3393955544
3393961221
3393966042
3393971597
3393976052
3393982095
3393986855
3393994241
3393998635
3394005166
3394009927
3394017739
3394021889
3394027566
3394034280
3394040017
3394045998
3394051064
3394057351
3394062661
3394068337
3394073220
3394078774
3394084755
3394090554
3394095742
3394102517
3394107399
3394115334
3394120339
3394125588
3394131386
3394140175
3394145424
3394151467
3394157570
3394163307
3394169716
3394175148
3394180153
3394185280
3394192909
3394197792
3394203346
3394210304
3394215920
3394220436
3394226601
3394232277
3394236061
3394243691
3394247170
3394254433
3394259804
3394266335
3394271767
3394277809
3394284035
3394292580
3394297523
3394303993
3394308205
3394314735
3394319130
3394323097
3394330910
3394335976
3394343239
3394347450
3394353493
3394359596
3394365333
3394368629
3394376076
3394380165
3394388038
3394391395
3394397865
3394402626
3394409523
3394414772
3394420997
3394428688
3394435035
3394439918
3394447853
3394454322
3394461219
3394468605
3394475624
3394479835
3394486122
3394491004
3394497596
3394502967
3394507667
3394512367
3394520179
3394525367
3394533668
3394538184
3394544105
3394550452
3394555213
3394559242
3394564979
3394570655
3394577064
3394584327
3394589210
3394595679
3394600623
3394606849
3394612098
3394618201
3394625770
3394632117
3394637672
3394641883
3394650123
3394654822
3394661597
3394667640
3394671729
3394678260
3394684729
3394689673
3394696021
3394700965
3394706580
3394711280
3394717139
3394722449
3394729285
3394734473
3394740332
3394745826
3394751624
3394758033
3394763953
3394769019
3394777442
3394782141
3394788245
3394792884
3394800574
3394807166
3394813391
3394819068
3394824072
3394830725
3394836096
3394840186
3394846594
3394853186
3394858984
3394865149
3394874243
3394879797
3394886328
3394893835
3394899939
3394905981
3394910986
3394917639
3394922644
3394929480
3394935217
3394941199
3394945227
3394951513
3394954809
3394960791
3394966406
3394974035
3394977636
3394983557
3394988440
3394994787
3394999670
3395004553
3395010962
3395016455
3395021765
3395028479
3395033728
3395039526
3395044287
3395050390
3395055944
3395062536
3395068396
3395071447
3395079687
3395085668
3395090490
3395095922
3395101721
3395107885
3395115026
3395120153
3395125585
3395133154
3395138891
3395144018
3395152013
3395158971
3395166967
3395173559
3395179052
3395183935
3395190771
3395195592
3395201452
3395208349
3395214208
3395218664
3395224889
3395231054
3395238439
3395243078
3395246679
3395253881
3395262121
3395267003
3395271764
3395278356
3395281713
3395288610
3395293554
3395298497
3395303136
3395310643
3395315831
3395320775
3395327123
3395331578
3395337743
3395343236
3395349462
3395355626
3395360387
3395363683
3395371007
3395376927
3395381871
3395386632
3395392613
3395399205
3395406285
3395411107
3395415990
3395420323
3395426915
3395431188
3395437474
3395442967
3395450047
3395455174
3395461827
3395468663
3395474461
3395481175
3395485326
3395491002
3395498204
3395504613
3395509984
3395516087
3395520726
3395525792
3395532139
3395536595
3395543431
3395548985
3395553868
3395560826
3395567784
3395573155
3395580601
3395585362
3395591343
3395597996
3395603306
3395611180
3395616856
3395622532
3395627659
3395635228
3395640721
3395647312
3395654332
3395659031
3395665196
3395669834
3395676792
3395680760
3395687107
3395693699
3395699742
3395705296
3395711094
3395716343
3395722080
3395726841
3395732395
3395737644
3395745518
3395752354
3395756687
3395762913
3395767979
3395774448
3395779942
3395785007
3395791965
3395798496
3395802524
3395809849
3395813572
3395820896
3395826084
3395831577
3395837253
3395843357
3395848972
3395856601
3395862095
3395869541
3395874912
3395881748
3395888523
3395895603
3395900913
3395906345
3395911594
3395918003
3395924717
3395931125
3395936924
3395944919
3395950717
3395954929
3395962009
3395965549
3395973422
3395977146
3395984165
3395990634
3395997165
3396002353
3396009128
3396014743
3396019748
3396024509
3396030429
3396035556
3396042453
3396047214
3396052463
3396058749
3396063449
3396068088
3396074924
3396080966
3396087680
3396094089
3396100986
3396108371
3396113803
3396118625
3396125155
3396129855
3396137179
3396141879
3396147922
3396153964
3396158969
3396164706
3396169406
3396175448
3396182773
3396187350
3396190829
3396198459
3396202060
3396209445
3396212741
3396219882
3396227450
3396234103
3396237399
3396244845
3396248263
3396254428
3396259127
3396266024
3396271212
3396277438
3396282382
3396287814
3396292208
3396298190
3396302523
3396308688
3396315524
3396321322
3396326022
3396332674
3396337618
3396343539
3396349520
3396353487
3396360262
3396364046
3396371798
3396375399
3396382906
3396386202
3396392611
3396397616
3396402621
3396410677
3396417574
3396422579
3396428377
3396433687
3396450655
3396455416
3396460970
3396468050
3396474642
3396478182
3396485567
3396491610
3396496248
3396501497
3396508333
3396513582
3396520601
3396526094
3396530855
3396537203
3396543611
3396549105
3396555086
3396562227
3396566133
3396574800
3396579073
3396584383
3396589510
3396595918
3396600740
3396606355
3396611543
3396617586
3396624666
3396631929
3396638948
3396643831
3396647981
3396655489
3396661653
3396668550
3396673860
3396679658
3396687227
3396693574
3396698946
3396705415
3396711580
3396715730
3396724153
3396731660
3396736116
3396741975
3396747835
3396752046
3396757478
3396764680
3396770662
3396776155
3396781953
3396785371
3396792085
3396797700
3396803498
3396809358
3396814485
3396819429
3396825654
3396830415
3396836091
3396840303
3396846040
3396853852
3396860017
3396865388
3396870759
3396877473
3396882295
3396886567
3396891877
3396898164
3396904389
3396909333
3396916291
3396920991
3396927522
3396933564
3396938752
3396944672
3396950898
3396955720
3396962006
3396966279
3396969636
3396977875
3396982148
3396988374
3396995942
3397002045
3397008454
3397013398
3397019318
3397024262
3397029694
3397036835
3397042939
3397051850
3397056977
3397063263
3397067841
3397074921
3397080109
3397085236
3397091340
3397098664
3397104218
3397109833
3397116608
3397122162
3397128510
3397132843
3397140168
3397147065
3397152924
3397160492
3397165436
3397171417
3397176239
3397182160
3397188690
3397194611
3397201996
3397205658
3397212250
3397217926
3397223419
3397228729
3397235199
3397240875
3397247772
3397253204
3397257904
3397264313
3397269623
3397275970
3397281586
3397287750
3397297027
3397303375
3397305267
3397314545
3397318268
3397325775
3397329254
3397335724
3397342438
3397348846
3397353546
3397360077
3397365082
3397371124
3397375885
3397381195
3397387664
3397393463
3397398773
3397404083
3397408477
3397414520
3397420135
3397424896
3397431121
3397437896
3397442901
3397448883
3397453338
3397456756
3397464874
3397468841
3397474761
3397480865
3397486602
3397491973
3397498504
3397503631
3397510284
3397515533
3397520965
3397527374
3397535186
3397539764
3397546539
3397551849
3397556670
3397560943
3397567718
3397573333
3397579986
3397586089
3397590301
3397597808
3397602325
3397612762
3397616424
3397624602
3397628692
3397636809
3397641631
3397649016
3397657195
3397662993
3397668792
3397673736
3397681182
3397686004
3397689544
3397697173
3397702910
3397707122
3397713713
3397718230
3397723357
3397730986
3397736418
3397742583
3397746916
3397753447
3397760955
3397763152
3397772917
3397778166
3397785552
3397791594
3397796355
3397802275
3397807829
3397813017
3397818511
3397823821
3397831084
3397836394
3397843413
3397849638
3397854765
3397860930
3397865446
3397871367
3397880461
3397886870
3397892912
3397899748
3397906767
3397911589
3397917326
3397924956
3397931364
3397937163
3397944853
3397950712
3397955717
3397962736
3397967985
3397975309
3397979704
3397986967
3397992643
3397999113
3398006254
3398011015
3398016813
3398023405
3398027189
3398035307
3398038725
3398045744
3398051176
3398055937
3398061247
3398066618
3398072477
3398078642
3398083769
3398089384
3398093839
3398099638
3398105436
3398110258
3398118253
3398124052
3398130216
3398135038
3398141508
3398147550
3398152250
3398158170
3398163908
3398169706
3398176115
3398181364
3398187528
3398192472
3398198392
3398204679
3398210905
3398216886
3398224637
3398230619
3398235990
3398241666
3398246671
3398253080
3398257474
3398263028
3398268949
3398277677
3398281156
3398288175
3398293424
3398298856
3398304593
3398310025
3398316495
3398321744
3398327237
3398333707
3398339322
3398347562
3398351529
3398358792
3398363919
3398373319
3398378995
3398383939
3398390714
3398397428
3398402677
3398410062
3398416837
3398422818
3398429349
3398435819
3398440640
3398446683
3398453214
3398458890
3398462796
3398470731
3398474026
3398479886
3398484830
3398491605
3398497403
3398502652
3398509427
3398515896
3398523770
3398529446
3398534207
3398540555
3398545376
3398550503
3398556546
3398563382
3398568936
3398574368
3398579373
3398585110
3398591092
3398596402
3398600552
3398606533
3398611172
3398617459
3398623440
3398628567
3398634976
3398641629
3398644741
3398650906
3398656155
3398662991
3398667507
3398674221
3398680264
3398685635
3398691250
3398696987
3398701504
3398707241
3398714932
3398720730
3398725674
3398731655
3398736416
3398740688
3398745937
3398751797
3398757778
3398762417
3398767727
3398773220
3398777187
3398784573
3398791347
3398797756
3398807766
3398814785
3398823452
3398826626
3398835659
3398843349
3398848171
3398854213
3398860744
3398864895
3398873745
3398878322
3398885646
3398890163
3398897121
3398902919
3398908596
3398913784
3398919094
3398926906
3398932155
3398938320
3398944667
3398951564
3398953517
3398962795
3398967433
3398973537
3398979518
3398985500
3398990016
3398998927
3399002834
3399011257
3399015651
3399026393
3399029811
3399041957
3399048366
3399057643
3399065761
3399073390
3399084010
3399093715
3399101344
3399108546
3399117335
3399125148
3399131068
3399137965
3399144435
3399148158
3399156642
3399162074
3399168300
3399174647
3399179652
3399185023
3399191066
3399197108
3399203334
3399210414
3399215541
3399220301
3399226893
3399231654
3399238368
3399244532
3399249964
3399256251
3399261866
3399266932
3399271144
3399279811
3399283595
3399290431
3399295558
3399302271
3399307398
3399314417
3399319178
3399326563
3399331263
3399337977
3399342249
3399346400
3399353480
3399357630
3399364710
3399368800
3399375208
3399378870
3399386011
3399391505
3399396570
3399404139
3399408900
3399413843
3399419642
3399425684
3399429896
3399436182
3399440516
3399445032
3399453089
3399459070
3399464197
3399469873
3399474573
3399480433
3399484522
3399490564
3399497278
3399502039
3399507593
3399513208
3399518579
3399523706
3399529993
3399535486
3399540552
3399546411
3399554834
3399562769
3399567285
3399572717
3399576196
3399584009
3399587549
3399596094
3399600183
3399606409
3399612512
3399617761
3399623132
3399627832
3399634180
3399642542
3399646570
3399654565
3399659692
3399664148
3399670190
3399674463
3399681238
3399688318
3399692407
3399700036
3399704431
3399711938
3399716943
3399723230
3399727685
3399735376
3399739282
3399746057
3399749109
3399756616
3399759973
3399766809
3399772607
3399778772
3399782251
3399789148
3399793847
3399799585
3399805932
3399811242
3399817102
3399823327
3399828027
3399833215
3399837792
3399844079
3399848779
3399855798
3399859826
3399867578
3399870812
3399878991
3399884423
3399888879
3399893578
3399899865
3399906335
3399912133
3399916955
3399922387
3399928613
3399933495
3399937829
3399943688
3399952477
3399959008
3399963891
3399968224
3399974816
3399978478
3399986718
3399990685
3399997399
3400003136
3400009789
3400016076
3400022973
3400028649
3400035058
3400040490
3400046654
3400051293
3400058129
3400063378
3400070702
3400075829
3400079613
3400088280
3400092064
3400098290
3400104027
3400111718
3400116844
3400122826
3400128075
3400133690
3400138939
3400144799
3400152611
3400160301
3400165489
3400172081
3400177086
3400183006
3400188011
3400193504
3400199303
3400204674
3400211205
3400215904
3400223351
3400228172
3400233665
3400239952
3400242210
3400250877
3400258446
3400263512
3400269554
3400275413
3400282371
3400287620
3400293358
3400299705
3400305443
3400314415
3400321495
3400326927
3400331993
3400336876
3400343040
3400347618
3400353233
3400360618
3400365562
3400371910
3400377403
3400384422
3400390037
3400396934
3400403709
3400409019
3400413597
3400420616
3400426475
3400432273
3400438133
3400443382
3400449241
3400456565
3400461692
3400466697
3400473045
3400477744
3400485191
3400490196
3400495872
3400501792
3400508567
3400512901
3400518516
3400524131
3400530418
3400532615
3400541831
3400545737
3400553184
3400559287
3400565818
3400570151
3400581565
3400586692
3400592368
3400597678
3400604697
3400611655
3400617209
3400622031
3400627402
3400633384
3400638816
3400644614
3400651450
3400658042
3400664634
3400669272
3400675925
3400680808
3400687522
3400692160
3400699973
3400703696
3400712119
3400715842
3400722983
3400728842
3400733664
3400740256
3400748007
3400751364
3400760825
3400766928
3400772360
3400777487
3400784934
3400789816
3400795371
3400801291
3400805747
3400812338
3400817099
3400823264
3400828818
3400835410
3400841818
3400847128
3400851889
3400858847
3400863913
3400868735
3400875815
3400881064
3400887961
3400898154
3400905966
3400910483
3400916159
3400922323
3400928427
3400933798
3400941610
3400946188
3400952108
3400956442
3400961264
3400967001
3400971945
3400977804
3400984030
3400991842
3400995504
3401001303
3401007406
3401012655
3401017111
3401023275
3401028585
3401035604
3401040731
3401047323
3401051779
3401055807
3401063131
3401067098
3401072347
3401079916
3401084493
3401090170
3401094686
3401099630
3401106161
3401110922
3401116476
3401124288
3401129964
3401134786
3401140279
3401147359
3401152853
3401157430
3401163595
3401170492
3401177145
3401181966
3401187093
3401193319
3401198751
3401203695
3401210470
3401214864
3401222066
3401228963
3401232686
3401238851
3401243734
3401250631
3401256917
3401261617
3401269552
3401274617
3401279317
3401286580
3401293538
3401299764
3401305257
3401310994
3401318135
3401323629
3401328572
3401335591
3401341390
3401348409
3401353169
3401359395
3401366963
3401373921
3401379903
3401385335
3401390340
3401396748
3401401326
3401407430
3401412618
3401418172
3401424641
3401429829
3401436726
3401441365
3401446858
3401453267
3401459492
3401464741
3401473408
3401478474
3401483113
3401489766
3401496541
3401502095
3401507710
3401513386
3401519917
3401527913
3401535603
3401543538
3401548726
3401556294
3401561848
3401568379
3401573384
3401579304
3401586201
3401590779
3401596699
3401604023
3401607807
3401616108
3401619953
3401628254
3401632466
3401638813
3401642170
3401649372
3401654865
3401660176
3401666096
3401671223
3401676045
3401680805
3401687092
3401691914
3401696247
3401702595
3401708271
3401716816
3401722492
3401727619
3401733784
3401741230
3401746235
3401753925
3401759418
3401766132
3401771625
3401778339
3401783100
3401787006
3401795185
3401798847
3401806110
3401813434
3401820026
3401825214
3401831806
3401836811
3401842365
3401848774
3401854328
3401860920
3401866535
3401874652
3401881610
3401887226
3401892414
3401897174
3401901569
3401909992
3401917316
3401922504
3401926166
3401935016
3401939289
3401946002
3401951190
3401958148
3401964008
3401970905
3401976581
3401982990
3401987567
3401993732
3401998676
3402004718
3402011615
3402017474
3402024249
3402026263
3402034991
3402038898
3402045917
3402051105
3402055804
3402064777
3402070270
3402074786
3402080585
3402085528
3402091327
3402095599
3402102801
3402109027
3402116351
3402123675
3402130572
3402134967
3402142901
3402148639
3402154925
3402161395
3402168170
3402172931
3402179156
3402183978
3402189776
3402194171
3402199603
3402204241
3402210772
3402216998
3402222857
3402227313
3402231280
3402238543
3402242694
3402249468
3402254229
3402262042
3402265399
3402271685
3402276568
3402282916
3402288226
3402293780
3402299761
3402306719
3402311602
3402316607
3402322955
3402328082
3402332720
3402337725
3402344012
3402350787
3402357134
3402363665
3402368914
3402374285
3402378680
3402384356
3402391314
3402397356
3402401934
3402407915
3402414263
3402419207
3402425005
3402428972
3402436113
3402439837
3402446489
3402452715
3402458025
3402463030
3402469683
3402476397
3402481218
3402487200
3402493547
3402498430
3402504778
3402509539
3402514482
3402520891
3402525530
3402530107
3402537737
3402542742
3402548296
3402555742
3402561479
3402569109
3402575090
3402581072
3402589067
3402594316
3402601823
3402606889
3402614214
3402619218
3402627031
3402632341
3402638261
3402644548
3402651079
3402656267
3402668046
3402673295
3402680009
3402685380
3402691606
3402696184
3402701860
3402706560
3402713884
3402718950
3402726030
3402732011
3402739091
3402744767
3402751237
3402757219
3402761674
3402766374
3402771135
3402777299
3402782121
3402788224
3402792924
3402799455
3402804704
3402811601
3402817643
3402825090
3402831925
3402838822
3402845048
3402849809
3402855668
3402860185
3402867021
3402871720
3402877397
3402883134
3402888078
3402892472
3402897782
3402903581
3402910600
3402915360
3402921403
3402925980
3402931779
3402936173
3402940263
3402947953
3402953446
3402960038
3402965653
3402969926
3402973344
3402981278
3402984757
3402991593
3402998307
3403004166
3403009781
3403015519
3403018937
3403024857
3403031205
3403036026
3403042923
3403048417
3403054886
3403061478
3403068680
3403075150
3403081314
3403086258
3403093338
3403097489
3403103226
3403109024
3403115006
3403121414
3403126847
3403132157
3403139237
3403146500
3403151871
3403156632
3403163529
3403168839
3403174454
3403180924
3403187271
3403190689
3403198074
3403204666
3403211014
3403214371
3403220352
3403225845
3403232864
3403238541
3403243301
3403248245
3403253921
3403258438
3403264908
3403269607
3403275528
3403284134
3403289444
3403295975
3403301651
3403307632
3403313553
3403320755
3403327469
3403330520
3403337173
3403342849
3403348098
3403351455
3403356826
3403364822
3403369705
3403375564
3403379776
3403384414
3403391250
3403396011
3403401199
3403407730
3403413955
3403419021
3403424941
3403429946
3403435012
3403439163
3403445266
3403451980
3403458206
3403463149
3403469375
3403473708
3403480300
3403485976
3403490798
3403496963
3403501113
3403507888
3403511245
3403518325
3403524001
3403528457
3403533340
3403539931
