3313907532
3313914856
3313918945
3313923156
3313927917
3313935241
3313940979
3313947937
3313953857
3313960205
3313967285
3313974792
3313982849
3313988891
3313996093
3314001892
3314008117
3314016052
3314024108
3314031433
3314038574
3314045776
3314053405
3314061340
3314067809
3314075439
3314082763
3314090514
3314098571
3314106139
3314113342
3314121154
3314128844
3314136535
3314142821
3314148437
3314156066
3314162108
3314171203
3314178222
3314185119
3314192809
3314200805
3314208068
3314215331
3314221984
3314229064
3314238097
3314245849
3314251769
3314259154
3314266906
3314274840
3314282408
3314289977
3314298217
3314304442
3314312682
3314322081
3314331542
3314337828
3314345213
3314352599
3314360961
3314367735
3314375853
3314384215
3314390440
3314398741
3314406126
3314414488
3314423216
3314432860
3314440245
3314453795
3314461241
3314470518
3314479490
3314488341
3314496092
3314504088
3314512449
3314518980
3314527037
3314533567
3314541685
3314549620
3314557310
3314563963
3314571287
3314578733
3314585997
3314592955
3314600279
3314607115
3314615721
3314622679
3314630308
3314637022
3314643003
3314651731
3314657469
3314666685
3314673094
3314679990
3314688780
3314695188
3314702085
3314709043
3314717466
3314725706
3314732297
3314740354
3314746336
3314754453
3314760068
3314768125
3314775754
3314787717
3314796750
3314803708
3314810117
3314816648
3314825437
3314832883
3314840207
3314848569
3314854917
3314861692
3314869931
3314876096
3314884275
3314890500
3314899533
3314906247
3314914365
3314920529
3314928647
3314935300
3314943418
3314950864
3314956296
3314964963
3314973447
3314980832
3314988278
3314995297
3315002194
3315009518
3315017331
3315026120
3315031491
3315040219
3315046017
3315054806
3315059933
3315069089
3315076291
3315084530
3315090817
3315098874
3315106381
3315113949
3315121212
3315130368
3315139157
3315146176
3315156124
3315164364
3315172055
3315178219
3315188595
3315196163
3315203915
3315210995
3315219845
3315227108
3315235287
3315241696
3315249935
3315256954
3315263424
3315270687
3315278988
3315285824
3315294064
3315301693
3315309139
3315316097
3315323421
3315330990
3315338497
3315345638
3315356258
3315364010
3315370296
3315378719
3315384884
3315394161
3315400142
3315409603
3315416012
3315423763
3315432613
3315441280
3315448970
3315455745
3315464962
3315471736
3315479732
3315489131
3315496578
3315505611
3315514217
3315523006
3315531551
3315540035
3315547481
3315554805
3315561702
3315569392
3315576228
3315584285
3315591731
3315597835
3315606441
3315614680
3315622249
3315630489
3315638118
3315643977
3315653255
3315659236
3315668025
3315676387
3315684077
3315692927
3315700435
3315706538
3315714656
3315724360
3315731990
3315739741
3315747310
3315755976
3315763301
3315770747
3315778254
3315786067
3315795832
3315802180
3315811579
3315818843
3315825678
3315832575
3315842280
3315849421
3315858576
3315865107
3315873652
3315880793
3315887751
3315896479
3315903376
3315910639
3315920649
3315928095
3315941523
3315951472
3315959711
3315968561
3315975825
3315983698
3315991022
3315997858
3316004450
3316012507
3316019770
3316026911
3316034296
3316041437
3316049372
3316056757
3316063593
3316070917
3316078546
3316084833
3316093317
3316099970
3316106989
3316116205
3316124201
3316131220
3316138300
3316145624
3316153436
3316162164
3316169428
3316177362
3316185236
3316192316
3316200677
3316208002
3316215570
3316223871
3316232049
3316241083
3316247308
3316256219
3316266656
3316274835
3316282464
3316289972
3316299249
3316306939
3316314142
3316321527
3316330316
3316338311
3316346917
3316354791
3316363397
3316370599
3316378411
3316387017
3316394525
3316403131
3316409783
3316417352
3316424859
3316429986
3316437371
3316442193
3316449334
3316455254
3316461846
3316467095
3316472161
3316478997
3316485345
3316490228
3316497369
3316502740
3316507012
3316514764
3316520867
3316528130
3316533745
3316539910
3316544427
3316550713
3316555047
3316563225
3316567559
3316577508
3316584954
3316590386
3316596367
3316607354
3316613945
3316620659
3316626214
3316632012
3316638970
3316644341
3316650628
3316657280
3316661370
3316667961
3316672173
3316678521
3316685356
3316690544
3316695977
3316702507
3316706597
3316713188
3316717949
3316724602
3316730339
3316736382
3316740959
3316747002
3316752800
3316758476
3316764397
3316768608
3316774895
3316781181
3316786430
3316793022
3316798149
3316803337
3316808708
3316814506
3316821526
3316825920
3316832451
3316837883
3316844719
3316851372
3316858085
3316863518
3316868095
3316875969
3316881645
3316887810
3316892936
3316899223
3316903923
3316910392
3316916252
3316921684
3316927543
3316931755
3316938285
3316944206
3316949577
3316957267
3316962150
3316967826
3316973991
3316979362
3316985466
3316990409
3316996635
3317001213
3317007255
3317013481
3317019462
3317024711
3317029045
3317035697
3317041190
3317046501
3317053397
3317058646
3317064018
3317069145
3317075614
3317080558
3317086051
3317091972
3317096488
3317102653
3317108085
3317114799
3317121329
3317129081
3317135673
3317142448
3317147758
3317153983
3317160880
3317168571
3317173148
3317179435
3317184623
3317191153
3317196830
3317201529
3317207267
3317213553
3317218497
3317224601
3317231009
3317235221
3317241751
3317248099
3317253348
3317260978
3317267142
3317272452
3317278800
3317283011
3317289115
3317295828
3317300467
3317308035
3317310721
3317317862
3317321951
3317330252
3317335074
3317341788
3317346732
3317352896
3317360098
3317364615
3317371329
3317375479
3317382132
3317390616
3317397940
3317405691
3317414542
3317422049
3317429373
3317436758
3317444693
3317452566
3317460318
3317467886
3317474844
3317482412
3317489370
3317496267
3317502798
3317508474
3317513907
3317518789
3317524710
3317529715
3317535757
3317541433
3317547049
3317552542
3317557791
3317563589
3317569204
3317574636
3317580313
3317586233
3317590444
3317596426
3317601065
3317606436
3317613455
3317619497
3317624563
3317630850
3317636404
3317642324
3317646597
3317654775
3317660268
3317667593
3317673696
3317680105
3317684805
3317692190
3317699392
3317706350
3317711904
3317717519
3317722402
3317728200
3317734182
3317739248
3317744924
3317751150
3317756704
3317761831
3317767568
3317772573
3317777761
3317783681
3317789480
3317795339
3317800710
3317805776
3317812001
3317817556
3317823476
3317828115
3317834157
3317839345
3317845327
3317851491
3317857289
3317862966
3317869802
3317875295
3317880544
3317885854
3317892385
3317897817
3317902638
3317909108
3317913869
3317920644
3317926259
3317931142
3317936757
3317942983
3317948293
3317954518
3317958974
3317965077
3317971364
3317977162
3317982594
3317988820
3317994008
3317999745
3318005666
3318011586
3318018117
3318022877
3318029469
3318034718
3318040822
3318045888
3318052174
3318057789
3318063283
3318069630
3318074208
3318080067
3318085866
3318092335
3318097218
3318102650
3318108876
3318114613
3318121022
3318125966
3318131581
3318137745
3318143055
3318149159
3318153126
3318159413
3318166493
3318170521
3318175831
3318181935
3318188648
3318193104
3318201222
3318208546
3318213917
3318220326
3318225697
3318232655
3318239918
3318245106
3318250843
3318256947
3318260914
3318268116
3318273609
3318278248
3318283192
3318291737
3318295460
3318301380
3318307789
3318313465
3318318653
3318324757
3318330189
3318336902
3318341968
3318347278
3318353931
3318358326
3318365284
3318370899
3318377430
3318382007
3318388050
3318394947
3318399097
3318405994
3318411670
3318417041
3318422718
3318429248
3318433216
3318439807
3318445606
3318450306
3318456165
3318462451
3318468311
3318474353
3318478870
3318484912
3318490833
3318496326
3318501697
3318507678
3318512927
3318516956
3318523486
3318530139
3318535571
3318540881
3318548206
3318554126
3318560291
3318564929
3318571338
3318577075
3318582568
3318588550
3318595630
3318602039
3318607715
3318612476
3318618457
3318625110
3318629504
3318635791
3318642383
3318648791
3318654101
3318659350
3318665881
3318671496
3318677661
3318682361
3318688403
3318693042
3318699206
3318703906
3318709948
3318716174
3318722339
3318727649
3318731982
3318740161
3318744677
3318751879
3318757189
3318765307
3318769763
3318778979
3318786303
3318791125
3318796984
3318804064
3318809435
3318815173
3318820910
3318826647
3318831774
3318836901
3318842333
3318848132
3318854235
3318856860
3318864306
3318869921
3318875475
3318880785
3318886706
3318892016
3318897936
3318902941
3318908190
3318914294
3318919482
3318925280
3318931322
3318935168
3318941088
3318947558
3318952563
3318958178
3318964892
3318971300
3318976977
3318982470
3318986742
3318994494
3319000109
3319005236
3319010424
3319016832
3319021654
3319026964
3319033800
3319038622
3319044786
3319051561
3319056383
3319062609
3319068895
3319074510
3319080431
3319084703
3319092821
3319097948
3319104662
3319107469
3319115343
3319121263
3319126024
3319131639
3319137865
3319143053
3319149278
3319153551
3319159776
3319164842
3319170946
3319176744
3319182542
3319187852
3319194322
3319199754
3319205125
3319210313
3319216722
3319222093
3319227769
3319234361
3319240037
3319245592
3319251878
3319256639
3319262071
3319269456
3319276536
3319283128
3319290330
3319296129
3319302598
3319308091
3319315233
3319319871
3319325181
3319331224
3319336595
3319342332
3319347276
3319352952
3319358445
3319364610
3319369615
3319375657
3319380479
3319385606
3319391770
3319397264
3319402818
3319407517
3319413255
3319418504
3319424546
3319429856
3319435960
3319441148
3319446336
3319452988
3319457261
3319463853
3319469590
3319474717
3319481004
3319487046
3319492783
3319497605
3319504197
3319509507
3319513718
3319522629
3319529221
3319533005
3319539658
3319545273
3319551316
3319556443
3319563218
3319569321
3319575425
3319580613
3319586106
3319592820
3319598984
3319604538
3319610398
3319617356
3319621994
3319628220
3319633591
3319639695
3319645676
3319651047
3319657029
3319662888
3319668137
3319673630
3319680161
3319682846
3319690720
3319695908
3319702805
3319708542
3319713364
3319718552
3319724716
3319730515
3319737717
3319742478
3319748581
3319755234
3319759323
3319765366
3319771469
3319777084
3319782761
3319787949
3319794296
3319802231
3319808578
3319818954
3319824448
3319830734
3319837631
3319841904
3319847580
3319852341
3319858139
3319863815
3319869613
3319873947
3319878402
3319884079
3319888229
3319894211
3319899093
3319904647
3319910263
3319914901
3319919418
3319925033
3319929855
3319935531
3319941146
3319945419
3319950668
3319956832
3319962326
3319967147
3319973007
3319978378
3319982650
3319987960
3319991989
3319997482
3320002975
3320009811
3320014572
3320019698
3320026351
3320031600
3320036544
3320041183
3320048019
3320052108
3320056625
3320061935
3320066268
3320071822
3320078109
3320084396
3320089645
3320096542
3320102889
3320108565
3320113387
3320119552
3320123519
3320131026
3320135909
3320142257
3320149459
3320154769
3320161422
3320166915
3320172835
3320177291
3320183150
3320188521
3320193831
3320200667
3320206954
3320211837
3320216719
3320222579
3320229293
3320233321
3320238692
3320244735
3320251815
3320256819
3320262618
3320267440
3320273360
3320280257
3320286299
3320291854
3320296309
3320304671
3320310591
3320315901
3320320723
3320328108
3320335005
3320340132
3320345015
3320350020
3320355208
3320361311
3320366377
3320371504
3320377669
3320382124
3320388167
3320393660
3320399458
3320404951
3320410933
3320416731
3320420882
3320427229
3320432905
3320438765
3320444319
3320450056
3320456587
3320464888
3320469893
3320475630
3320480696
3320487166
3320493086
3320498396
3320504866
3320511213
3320517256
3320522444
3320528486
3320532637
3320540083
3320544355
3320550459
3320555342
3320561750
3320566877
3320573042
3320577070
3320583174
3320588911
3320594465
3320599287
3320609541
3320616010
3320621870
3320627180
3320632734
3320639082
3320643842
3320650312
3320655073
3320660627
3320666731
3320670637
3320676862
3320682966
3320687788
3320693769
3320698591
3320703657
3320709821
3320715070
3320720869
3320725080
3320731183
3320738447
3320743024
3320749616
3320754743
3320759870
3320765363
3320771955
3320777265
3320783429
3320787885
3320794782
3320802045
3320806501
3320815046
3320820356
3320827192
3320832318
3320838605
3320844342
3320849652
3320855085
3320861554
3320867597
3320871747
3320877729
3320882672
3320888410
3320892926
3320898541
3320905316
3320910993
3320915692
3320921491
3320926434
3320931378
3320938519
3320944623
3320949994
3320955548
3320959393
3320967267
3320971906
3320978192
3320983563
3320989117
3320994061
3320999860
3321006085
3321012128
3321017255
3321023724
3321029645
3321033917
3321040021
3321045880
3321052105
3321057660
3321063031
3321069317
3321075543
3321080792
3321087079
3321093182
3321098004
3321104962
3321110760
3321116253
3321123211
3321128888
3321134808
3321140362
3321145245
3321150799
3321156536
3321162457
3321166607
3321173992
3321178143
3321184307
3321191265
3321197918
3321203106
3321209149
3321213909
3321219891
3321224651
3321230999
3321237347
3321243755
3321248943
3321255779
3321260540
3321267071
3321273113
3321279156
3321283367
3321289593
3321295879
3321300823
3321306560
3321312298
3321320598
3321324688
3321333538
3321339580
3321344951
3321349651
3321356914
3321361858
3321367351
3321372417
3321378216
3321383770
3321389446
3321395855
3321400859
3321406963
3321413189
3321418254
3321422161
3321428997
3321434246
3321439983
3321446270
3321452068
3321457744
3321463176
3321468425
3321474590
3321479045
3321485149
3321489726
3321495830
3321501689
3321506084
3321510845
3321518840
3321523662
3321528911
3321535320
3321539653
3321545635
3321550700
3321556194
3321563152
3321568767
3321573528
3321579631
3321585124
3321589885
3321596171
3321602031
3321606364
3321613139
3321617717
3321623576
3321628764
3321634990
3321641215
3321645488
3321651347
3321656169
3321661662
3321669230
3321676860
3321682414
3321687053
3321692119
3321698161
3321703837
3321709269
3321715373
3321719401
3321726298
3321731669
3321737345
3321743510
3321749186
3321753947
3321759379
3321765299
3321769633
3321775004
3321781108
3321787455
3321792338
3321798197
3321803080
3321808878
3321814738
3321819682
3321825968
3321834757
3321841227
3321845560
3321852396
3321856425
3321863627
3321869913
3321875956
3321881083
3321887186
3321891703
3321897379
3321902323
3321907938
3321913676
3321919779
3321924723
3321929789
3321935770
3321941691
3321947123
3321952738
3321958780
3321964152
3321971293
3321976297
3321982584
3321988932
3321994669
3321999552
3322004679
3322010904
3322014994
3322021585
3322026957
3322032938
3322038065
3322042948
3322048868
3322054239
3322059122
3322064737
3322070963
3322075601
3322081095
3322087503
3322092874
3322097635
3322102762
3322109293
3322115579
3322121805
3322126199
3322133157
3322138834
3322143839
3322150064
3322155740
3322162027
3322167154
3322172769
3322177042
3322183206
3322187967
3322194009
3322200174
3322206216
3322211587
3322218179
3322223367
3322228677
3322236184
3322242227
3322247110
3322253274
3322259378
3322264139
3322270242
3322275735
3322281167
3322286844
3322293863
3322298867
3322304361
3322310891
3322316873
3322322793
3322328897
3322337686
3322345254
3322352822
3322359536
3322366677
3322373574
3322378335
3322384622
3322389138
3322394753
3322400735
3322407266
3322411904
3322417764
3322421914
3322427956
3322432656
3322437234
3322443520
3322449746
3322454018
3322459756
3322463784
3322469888
3322475075
3322482766
3322488869
3322495156
3322501748
3322508156
3322514321
3322521218
3322525979
3322532265
3322537819
3322543862
3322549416
3322554848
3322560524
3322567299
3322572976
3322578469
3322583230
3322588845
3322594948
3322599892
3322606057
3322610878
3322616738
3322622170
3322627480
3322632424
3322637978
3322645119
3322649697
3322655983
3322662148
3322666725
3322672585
3322678139
3322682045
3322688698
3322695229
3322700966
3322706154
3322710854
3322717384
3322722267
3322729408
3322733315
3322739601
3322744362
3322750160
3322755959
3322761940
3322767128
3322774574
3322779335
3322785255
3322791664
3322795875
3322801979
3322807594
3322813942
3322818214
3322824013
3322829933
3322836342
3322841957
3322848060
3322855201
3322859901
3322867225
3322872169
3322879005
3322884132
3322890419
3322896400
3322902259
3322908180
3322913246
3322919227
3322923805
3322929542
3322934608
3322942359
3322948951
3322955421
3322959999
3322966590
3322971534
3322977271
3322983741
3322988990
3322994911
3323000343
3323005775
3323011512
3323017860
3323023170
3323028968
3323034217
3323039283
3323045692
3323050269
3323056617
3323060767
3323067481
3323073646
3323080360
3323085487
3323091102
3323097022
3323104163
3323109717
3323115516
3323120521
3323126380
3323132239
3323137122
3323143287
3323149634
3323154395
3323160499
3323164710
3323172828
3323177832
3323184790
3323191016
3323198279
3323204871
3323211402
3323216040
3323221839
3323227881
3323233924
3323239417
3323245459
3323250403
3323256323
3323262244
3323267066
3323273841
3323280554
3323284766
3323291907
3323297766
3323302344
3323309180
3323317786
3323323462
3323328345
3323333777
3323339636
3323345496
3323354468
3323361365
3323367224
3323373694
3323379431
3323385413
3323392615
3323398230
3323404272
3323409460
3323414099
3323420141
3323425329
3323431982
3323437597
3323442175
3323447912
3323452856
3323458105
3323465368
3323471838
3323477209
3323483069
3323488440
3323493383
3323497839
3323504004
3323510229
3323515722
3323521521
3323526342
3323531347
3323538366
3323543310
3323549047
3323554968
3323560156
3323565588
3323571508
3323577795
3323583959
3323591100
3323595678
3323601354
3323607336
3323611730
3323617101
3323624426
3323628759
3323634802
3323639745
3323645544
3323650121
3323657018
3323663976
3323669347
3323674291
3323679662
3323685827
3323689855
3323695959
3323700902
3323706579
3323712255
3323717870
3323724828
3323729284
3323735509
3323740026
3323746312
3323751623
3323757299
3323761693
3323767553
3323773534
3323779638
3323784459
3323790624
3323796422
3323800817
3323806554
3323811498
3323818212
3323825292
3323830052
3323836156
3323841710
3323848485
3323854161
3323860326
3323869969
3323878331
3323885106
3323889562
3323896886
3323902623
3323908482
3323913304
3323919164
3323924474
3323929662
3323935826
3323940343
3323946507
3323950963
3323956761
3323963597
3323969151
3323974522
3323980687
3323985753
3323989659
3323994664
3324000218
3324005406
3324011387
3324016148
3324021947
3324027623
3324032567
3324038426
3324043187
3324048863
3324054600
3324060399
3324065892
3324072972
3324079686
3324085728
3324090489
3324096470
3324103672
3324109471
3324116246
3324121739
3324127781
3324131993
3324140110
3324146580
3324152195
3324160740
3324166050
3324171971
3324177097
3324183323
3324187962
3324194248
3324199497
3324204441
3324210911
3324216587
3324221165
3324227512
3324234409
3324240757
3324246494
3324252110
3324256870
3324262608
3324269627
3324273655
3324279148
3324284580
3324290562
3324297275
3324304294
3324310459
3324317356
3324322178
3324330295
3324335483
3324343418
3324348728
3324355076
3324360447
3324365390
3324370701
3324376865
3324381076
3324387058
3324391758
3324397495
3324402561
3324408176
3324414707
3324420383
3324425205
3324430698
3324437107
3324442173
3324447910
3324452243
3324457981
3324464511
3324469943
3324475070
3324480380
3324486484
3324491672
3324497592
3324502292
3324507785
3324514011
3324517917
3324523776
3324527560
3324535373
3324540378
3324546176
3324551852
3324557346
3324563205
3324569430
3324574374
3324579562
3324585361
3324590427
3324596225
3324602389
3324607638
3324614108
3324620273
3324626376
3324631808
3324637668
3324641818
3324647555
3324653903
3324659457
3324665500
3324670993
3324676791
3324680941
3324686740
3324693087
3324699069
3324705172
3324709506
3324715792
3324721774
3324726412
3324732638
3324738925
3324743075
3324749118
3324754489
3324760592
3324766329
3324772738
3324778109
3324783541
3324789950
3324795504
3324803133
3324809847
3324817599
3324822909
3324830538
3324836398
3324843356
3324849093
3324854342
3324860567
3324866610
3324871004
3324876864
3324882052
3324887850
3324893465
3324899386
3324905794
3324909762
3324915743
3324922457
3324927035
3324931490
3324938631
3324944552
3324951388
3324954989
3324960848
3324967012
3324972689
3324978548
3324983858
3324989656
3324995211
3325000460
3325007051
3325012911
3325018099
3325023836
3325028475
3325033602
3325039766
3325046663
3325051485
3325057833
3325063204
3325068941
3325076143
3325082002
3325087923
3325092622
3325099031
3325104952
3325110262
3325117281
3325123689
3325128755
3325133150
3325140230
3325145357
3325150179
3325155855
3325161287
3325165803
3325172029
3325176546
3325181917
3325188508
3325194246
3325198762
3325204500
3325209505
3325215486
3325221834
3325228059
3325233125
3325238801
3325243074
3325250581
3325255220
3325264741
3325271150
3325276643
3325284394
3325289216
3325296785
3325302644
3325308015
3325313264
3325318147
3325323640
3325328462
3325334260
3325338899
3325344575
3325349763
3325355073
3325359345
3325367219
3325374238
3325379304
3325385590
3325390595
3325397553
3325402558
3325409272
3325415009
3325420564
3325426911
3325431367
3325437104
3325442719
3325448273
3325454011
3325459260
3325464875
3325469392
3325476838
3325482575
3325488190
3325493561
3325499543
3325503937
3325510224
3325516083
3325521088
3325527009
3325531647
3325537324
3325543244
3325548798
3325555634
3325561432
3325566559
3325572174
3325578461
3325582917
3325588166
3325593354
3325599884
3325604828
3325610016
3325616547
3325620819
3325627472
3325632477
3325636872
3325641632
3325647553
3325652558
3325659394
3325664887
3325670014
3325675568
3325680329
3325685761
3325692291
3325696808
3325704010
3325709625
3325716522
3325722809
3325729340
3325735260
3325741486
3325748932
3325753754
3325759796
3325765411
3325770233
3325775848
3325782562
3325788971
3325794525
3325800934
3325805878
3325811249
3325816131
3325822906
3325828644
3325834747
3325840118
3325845978
3325851471
3325856781
3325861602
3325868499
3325873932
3325878753
3325884002
3325890411
3325896759
3325903045
3325908599
3325914093
3325919220
3325925140
3325931671
3325941375
3325945526
3325951202
3325957183
3325962371
3325968597
3325973846
3325980255
3325985381
3325992095
3325997649
3326005096
3326011199
3326016753
3326022491
3326028777
3326033843
3326039825
3326043731
3326049773
3326055938
3326060882
3326067107
3326071868
3326077056
3326084319
3326090362
3326095489
3326099700
3326106353
3326112823
3326117644
3326122832
3326129058
3326134429
3326140532
3326145232
3326156218
3326164458
3326170012
3326176177
3326184600
3326191008
3326198027
3326204497
3326209990
3326215544
3326220244
3326225554
3326230498
3326235869
3326241484
3326246916
3326252654
3326256926
3326262419
3326268828
3326274260
3326279143
3326284514
3326290679
3326294890
3326301054
3326307524
3326312590
3326317229
3326322722
3326328703
3326333342
3326339934
3326345427
3326351042
3326356291
3326360442
3326365813
3326370085
3326376982
3326381926
3326388518
3326393950
3326400908
3326407194
3326413298
3326419829
3326426237
3326433012
3326439543
3326445402
3326455412
3326460417
3326467070
3326473784
3326479765
3326486662
3326491545
3326496366
3326501554
3326508573
3326512724
3326520109
3326524809
3326530851
3326536222
3326542326
3326548979
3326554899
3326559843
3326564543
3326570280
3326575407
3326580106
3326585600
3326592741
3326597929
3326603422
3326608915
3326614957
3326620084
3326625761
3326631315
3326637479
3326643400
3326650236
3326655118
3326661283
3326666105
3326672575
3326677701
3326682218
3326688566
3326694120
3326699857
3326705594
3326710782
3326717130
3326722745
3326727079
3326734403
3326740262
3326746549
3326751371
3326756498
3326761625
3326766752
3326772855
3326778226
3326783231
3326788419
3326793607
3326800138
3326805204
3326810880
3326816251
3326821012
3326826871
3326831204
3326837003
3326842374
3326848294
3326853421
3326859220
3326865323
3326870938
3326876431
3326881802
3326887113
3326894437
3326898160
3326905057
3326910306
3326915982
3326921536
3326927335
3326931424
3326937466
3326943570
3326949918
3326954739
3326959927
3326965726
3326971707
3326977261
3326982510
3326988186
3326994229
3326998807
3327003689
3327009366
3327015042
3327019620
3327025052
3327031765
3327035000
3327041958
3327048306
3327055996
3327062100
3327068020
3327072598
3327079007
3327085842
3327089566
3327097012
3327101956
3327106655
3327113186
3327118740
3327125088
3327130642
3327136135
3327140774
3327146755
3327153897
3327158657
3327164883
3327169705
3327175381
3327179226
3327186184
3327191494
3327195828
3327203518
3327207974
3327213772
3327220181
3327225735
3327233791
3327240200
3327244472
3327249783
3327254421
3327261501
3327267300
3327272610
3327278469
3327284267
3327289516
3327295070
3327301479
3327307705
3327313015
3327318081
3327324367
3327329372
3327335659
3327344082
3327350429
3327353969
3327359523
3327365566
3327371242
3327376369
3327382900
3327388698
3327395473
3327399501
3327406032
3327411891
3327417568
3327423671
3327429470
3327434352
3327439357
3327444118
3327450221
3327455593
3327460048
3327466640
3327471279
3327476955
3327481349
3327487758
3327494716
3327502162
3327506862
3327512294
3327517970
3327523463
3327527553
3327532558
3327539516
3327546352
3327551479
3327558009
3327562892
3327568690
3327574977
3327579799
3327585719
3327591701
3327598292
3327603114
3327609096
3327615077
3327621242
3327626979
3327632838
3327638087
3327643947
3327650294
3327654689
3327661158
3327666774
3327672755
3327678431
3327682215
3327689723
3327696620
3327701258
3327706935
3327712794
3327718531
3327722987
3327729396
3327735560
3327741480
3327747035
3327753260
3327758143
3327765284
3327771021
3327777369
3327783045
3327788050
3327794520
3327800135
3327804163
3327810389
3327816309
3327822779
3327827113
3327833582
3327839747
3327844935
3327851404
3327856776
3327862696
3327866480
3327873316
3327879053
3327884241
3327890589
3327896998
3327903467
3327910303
3327915369
3327920984
3327928431
3327935206
3327939051
3327945948
3327951685
3327956263
3327962732
3327968225
3327975122
3327980371
3327986536
3327991236
3327996912
3328003138
3328009180
3328015406
3328021448
3328025537
3328032617
3328038172
3328044946
3328049585
3328055261
3328062036
3328068201
3328072717
3328078027
3328085779
3328090845
3328094995
3328101160
3328106714
3328110986
3328115808
3328122827
3328128992
3328133752
3328139612
3328144678
3328150232
3328157007
3328161645
3328167749
3328173730
3328180261
3328185266
3328190393
3328195398
3328201990
3328206567
3328211938
3328217309
3328224145
3328229577
3328234704
3328240991
3328245630
3328250207
3328255883
3328260461
3328266320
3328271875
3328278772
3328283532
3328288171
3328293786
3328300134
3328304345
3328309960
3328317102
3328322595
3328328271
3328334313
3328338342
3328343957
3328349938
3328356225
3328361474
3328366052
3328371911
3328376794
3328382714
3328388268
3328395837
3328402184
3328406884
3328412438
3328418176
3328423119
3328429772
3328435693
3328442040
3328447533
3328453026
3328458276
3328464501
3328470055
3328476098
3328482079
3328486596
3328492943
3328498070
3328502892
3328509484
3328514428
3328520470
3328526330
3328532006
3328538353
3328545433
3328552147
3328557763
3328563622
3328570275
3328575158
3328580651
3328587853
3328593407
3328599266
3328605065
3328610497
3328615380
3328621300
3328626854
3328632408
3328639061
3328644310
3328648522
3328655602
3328659508
3328665367
3328671410
3328676537
3328684349
3328691185
3328697411
3328702416
3328709068
3328713524
3328720238
3328726585
3328732017
3328737877
3328742882
3328751366
3328756676
3328762352
3328767723
3328772606
3328778770
3328785606
3328790916
3328796531
3328802391
3328807945
3328814232
3328820091
3328825767
3328831505
3328837669
3328843528
3328848838
3328853721
3328859642
3328864830
3328870506
3328876426
3328881736
3328886070
3328893577
3328898521
3328904197
3328910057
3328916404
3328920738
3328926231
3328931602
3328937583
3328944053
3328949119
3328955284
3328960899
3328966331
3328971519
3328977134
3328983848
3328988914
3328995506
3329002280
3329006309
3329013999
3329019675
3329025840
3329031699
3329037681
3329043601
3329049216
3329055076
3329060264
3329066550
3329070396
3329078208
3329083945
3329089377
3329095786
3329103110
3329109275
3329114585
3329119590
3329125510
3329131492
3329138327
3329143393
3329148520
3329154746
3329160666
3329166526
3329171592
3329177817
3329182395
3329188987
3329194480
3329199912
3329204917
3329211325
3329216025
3329222739
3329228964
3329234885
3329240927
3329246115
3329251608
3329257285
3329263693
3329270285
3329274985
3329280356
3329284811
3329290610
3329295920
3329303488
3329309775
3329315390
3329321005
3329326071
3329332602
3329337485
3329342856
3329348715
3329355002
3329359823
3329365622
3329371359
3329377951
3329383383
3329388632
3329394858
3329400229
3329405661
3329411581
3329415671
3329422751
3329428000
3329433554
3329437765
3329445395
3329450705
3329455954
3329462240
3329467794
3329473410
3329478292
3329485250
3329491293
3329497457
3329503317
3329509542
3329513693
3329520651
3329526571
3329532492
3329538900
3329544210
3329548849
3329554952
3329559835
3329566549
3329572469
3329577718
3329582540
3329588339
3329593160
3329598776
3329603170
3329610189
3329615194
3329620931
3329625631
3329631429
3329637105
3329640707
3329650045
3329655355
3329660604
3329666585
3329670919
3329676595
3329681478
3329688131
3329694723
3329700094
3329705098
3329710714
3329714864
3329719991
3329726278
3329733053
3329737508
3329744161
3329749471
3329754781
3329759786
3329763753
3329770589
3329776509
3329782064
3329787618
3329792684
3329800008
3329806111
3329812032
3329817525
3329823140
3329828206
3329834249
3329839681
3329846333
3329850789
3329856893
3329860616
3329867146
3329872640
3329878987
3329885518
3329890218
3329895955
3329901814
3329906331
3329912312
3329917744
3329923848
3329929402
3329935384
3329941548
3329946858
3329952717
3329959126
3329965840
3329970845
3329977620
3329984395
3329990132
3329995625
3330002339
3330008259
3330013630
3330019673
3330025532
3330030537
3330036457
3330041401
3330047993
3330052876
3330058796
3330064350
3330069966
3330076924
3330083210
3330087971
3330093708
3330100422
3330104939
3330112202
3330117512
3330123310
3330129963
3330136433
3330141682
3330147663
3330153767
3330160481
3330165485
3330171528
3330177937
3330183735
3330188923
3330194538
3330200275
3330205647
3330211567
3330217915
3330220600
3330228474
3330234272
3330240436
3330245747
3330251850
3330257709
3330262714
3330268940
3330275226
3330281391
3330286640
3330291584
3330296955
3330303486
3330308979
3330315387
3330321186
3330325763
3330330646
3330336078
3330341755
3330348652
3330354938
3330359638
3330365314
3330370380
3330375568
3330380573
3330386005
3330392169
3330398700
3330404071
3330408893
3330413959
3330420001
3330424884
3330430683
3330435748
3330441425
3330447528
3330452167
3330459064
3330464252
3330471332
3330476642
3330482318
3330489093
3330493976
3330500568
3330507037
3330511981
3330518085
3330523639
3330529254
3330534808
3330541766
3330547015
3330552692
3330558368
3330565570
3330570941
3330576434
3330581744
3330588092
3330593890
3330599444
3330605243
3330609942
3330616839
3330622455
3330628497
3330633563
3330639483
3330644488
3330650286
3330656024
3330662249
3330666339
3330672259
3330676959
3330683490
3330689105
3330694842
3330700335
3330706439
3330712359
3330718218
3330724139
3330729266
3330735674
3330741900
3330747271
3330752764
3330758441
3330765521
3330771258
3330777789
3330782977
3330788653
3330794451
3330799944
3330805315
3330810381
3330817339
3330823992
3330829119
3330834978
3330841204
3330846209
3330851763
3330857439
3330863421
3330869158
3330874529
3330880388
3330886797
3330892046
3330899004
3330904131
3330910051
3330914507
3330919939
3330924700
3330931841
3330937761
3330943377
3330948992
3330954485
3330960100
3330968035
3330973223
3330979082
3330986040
3330991045
3330997637
3331001848
3331009539
3331014971
3331020525
3331026445
3331031206
3331037248
3331042681
3331050432
3331056108
3331061784
3331067644
3331072588
3331078142
3331083452
3331089677
3331096025
3331101274
3331106889
3331111955
3331117754
3331124651
3331130693
3331135026
3331140459
3331146623
3331151750
3331157670
3331163103
3331170122
3331174760
3331179643
3331185624
3331191484
3331197343
3331203142
3331209306
3331214738
3331221147
3331225114
3331231706
3331236650
3331243303
3331247697
3331253495
3331260026
3331265336
3331271135
3331276689
3331283158
3331289689
3331294389
3331300859
3331305192
3331310502
3331316422
3331322648
3331328629
3331333451
3331339494
3331344804
3331350541
3331355912
3331362321
3331368302
3331373795
3331379655
3331384232
3331390031
3331396684
3331401871
3331406327
3331414140
3331419083
3331425004
3331430070
3331437089
3331443986
3331448807
3331455338
3331460404
3331468278
3331474564
3331479264
3331485062
3331491593
3331497086
3331502457
3331507584
3331514298
3331519120
3331525345
3331531022
3331537003
3331541825
3331547989
3331552872
3331557450
3331564408
3331569107
3331574906
3331580948
3331585099
3331592667
3331597550
3331604447
3331611038
3331615250
3331621231
3331625565
3331631119
3331637589
3331643631
3331648697
3331653580
3331659866
3331665176
3331672623
3331677445
3331683487
3331689652
3331695572
3331700455
3331707474
3331712295
3331718887
3331725418
3331730850
3331735672
3331742752
3331746780
3331753982
3331759964
3331765701
3331771438
3331776871
3331782120
3331787185
3331793594
3331799942
3331805252
3331810623
3331816299
3331821487
3331827896
3331833145
3331838882
3331844131
3331848098
3331853897
3331862747
3331869033
3331873184
3331880508
3331886245
3331890213
3331896011
3331902725
3331908462
3331914199
3331920852
3331925125
3331929824
3331936782
3331942642
3331949416
3331955520
3331960342
3331966384
3331970779
3331976455
3331982436
3331987991
3331993056
3331998733
3332004104
3332008804
3332014236
3332019179
3332025832
3332030837
3332036697
3332041396
3332045730
3332051528
3332056350
3332064956
3332071120
3332075698
3332081557
3332085769
3332092544
3332096938
3332103530
3332108657
3332113479
3332116591
3332121413
3332126357
3332131911
3332136061
3332139846
3332144912
3332149611
3332153273
3332157241
3332160598
3332165419
3332170729
3332174941
3332178054
3332183852
3332188552
3332194289
3332199538
3332204116
3332207533
3332212355
3332217543
3332221633
3332226821
3332231581
3332236220
3332240981
3332247267
3332252211
3332256239
3332259230
3332263564
3332267897
3332272963
3332276564
3332282484
3332287306
3332291762
3332297255
3332300917
3332305861
3332310927
3332315260
3332319716
3332324477
3332329665
3332334425
3332339491
3332345289
3332350966
3332358046
3332363783
3332369642
3332373915
3332379225
3332383742
3332388075
3332392897
3332397963
3332401442
3332408949
3332412794
3332417128
3332421949
3332426893
3332431593
3332436720
3332440504
3332446241
3332450514
3332455152
3332458815
3332462599
3332467482
3332474073
3332478468
3332482252
3332487196
3332491529
3332495252
3332501173
3332505689
3332510084
3332514478
3332519850
3332524366
3332529676
3332534925
3332539869
3332544508
3332548475
3332552137
3332557813
3332563184
3332568678
3332572828
3332576734
3332580091
3332585462
3332590406
3332595594
3332599866
3332604261
3332609266
3332613294
3332618299
3332623304
3332628248
3332632154
3332637708
3332641736
3332648023
3332652540
3332657606
3332662855
3332666700
3332672315
3332676404
3332680372
3332686414
3332691480
3332697339
3332702161
3332705274
3332710584
3332715162
3332719678
3332723523
3332730359
3332734143
3332740674
3332745679
3332749341
3332758069
3332764600
3332769727
3332774854
3332779676
3332785291
3332789929
3332796155
3332800794
3332806836
3332813123
3332818128
3332827588
3332831616
3332838452
3332844556
3332848462
3332852490
3332858594
3332864636
3332869641
3332873486
3332879163
3332883496
3332890332
3332894543
3332899182
3332905591
3332909680
3332917004
3332922314
3332930127
3332936474
3332940930
3332947217
3332953015
3332958630
3332964367
3332970837
3332974866
3332983899
3332987866
3332995068
3332999341
3333006909
3333011670
3333016858
3333022717
3333027722
3333031933
3333038159
3333043530
3333049084
3333053906
3333061413
3333065991
3333073498
3333079602
3333083935
3333089672
3333094067
3333099072
3333106091
3333109753
3333116589
3333120861
3333128674
3333134350
3333138806
3333146374
3333152416
3333158276
3333164257
3333170178
3333173412
3333180676
3333188244
3333193859
3333198132
3333203747
3333209484
3333214001
3333219067
3333224804
3333230175
3333235363
3333241772
3333247814
3333252086
3333256969
3333263561
3333268810
3333276867
3333285290
3333290905
3333296520
3333301769
3333307506
3333312999
3333317943
3333325817
3333331981
3333337535
3333341747
3333348095
3333352733
3333356945
3333361461
3333367931
3333372570
3333379955
3333384288
3333390880
3333395214
3333400890
3333405223
3333410167
3333416576
3333421214
3333428111
3333432994
3333439708
3333445140
3333452464
3333458507
3333464000
3333469127
3333475841
3333482494
3333487193
3333497203
3333504344
3333512523
3333520824
3333525645
3333531261
3333536571
3333542430
3333547496
3333552196
3333557872
3333563792
3333571727
3333575816
3333581309
3333586558
3333591807
3333597850
3333603953
3333608348
3333615855
3333620433
3333626902
3333631663
3333636668
3333644419
3333650584
3333655650
3333662303
3333665904
3333671519
3333676402
3333681834
3333687144
3333692942
3333699717
3333704966
3333707774
3333716502
3333721507
3333726817
3333731944
3333741038
3333748667
3333754893
3333759837
3333765391
3333769602
3333775950
3333780222
3333787241
3333793284
3333799876
3333804514
3333809885
3333815684
3333820200
3333825144
3333830576
3333836802
3333842844
3333849558
3333853159
3333860056
3333866282
3333872019
3333877634
3333887583
3333894297
3333900889
3333906748
3333911997
3333917917
3333922556
3333927439
3333932871
3333939402
3333944468
3333949778
3333954416
3333959360
3333964853
3333970835
3333976694
3333982370
3333987985
3333990732
3333997568
3334003610
3334009043
3334011789
3334018381
3334026010
3334032968
3334037424
3334043955
3334048593
3334055551
3334062265
3334068246
3334073496
3334078622
3334083749
3334091257
3334096933
3334102060
3334108652
3334114389
3334120065
3334125253
3334131174
3334136362
3334141427
3334146921
3334153573
3334159799
3334163888
3334170907
3334175912
3334181283
3334187936
3334193673
3334199594
3334206430
3334211740
3334219003
3334223275
3334230416
3334234994
3334241647
3334247506
3334254281
3334260263
3334263314
3334270028
3334274484
3334281442
3334286141
3334292184
3334298409
3334305612
3334311105
3334317269
3334322579
3334328561
3334333138
3334341378
3334345834
3334352181
3334356088
3334361703
3334366464
3334371346
3334377450
3334382394
3334388863
3334395150
3334401376
3334406075
3334411507
3334417611
3334425057
3334430245
3334435921
3334441598
3334449044
3334454232
3334461556
3334466256
3334472603
3334478097
3334483773
3334489632
3334493783
3334500069
3334505562
3334510506
3334517830
3334522042
3334528511
3334532784
3334539009
3334543282
3334548653
3334553902
3334560067
3334564766
3334569344
3334575936
3334581795
3334586922
3334590706
3334596626
3334601998
3334607857
3334613533
3334618965
3334624153
3334629585
3334634163
3334638741
3334646004
3334652046
3334656258
3334660713
3334667244
3334673042
3334677559
3334682381
3334689033
3334693672
3334700996
3334705574
3334710579
3334715462
3334720772
3334726082
3334732124
3334740303
3334744881
3334749275
3334755806
3334760017
3334765938
3334771675
3334775337
3334783760
3334790413
3334794868
3334802192
3334807563
3334815864
3334821907
3334830452
3334836433
3334842598
3334849739
3334855293
3334861213
3334866340
3334872993
3334879646
3334884529
3334892707
3334897407
3334902290
3334908210
3334914558
3334919624
3334924995
3334929756
3334938239
3334942695
3334948982
3334954353
3334960334
3334966682
3334971320
3334976508
3334984077
3334992011
3334998298
3335002814
3335007819
3335015510
3335020942
3335026862
3335032905
3335039863
3335046821
3335053473
3335060615
3335065680
3335071113
3335075934
3335081611
3335088752
3335094672
3335099860
3335105597
3335111152
3335116828
3335123236
3335127448
3335133124
3335144355
3335149726
3335155097
3335159247
3335163459
3335169989
3335177375
3335183356
3335187689
3335192572
3335197638
3335203925
3335209174
3335214057
3335219550
3335224005
3335229437
3335235358
3335240729
3335245612
3335251044
3335257452
3335263068
3335270209
3335275824
3335280829
3335286200
3335290655
3335295477
3335302069
3335306036
3335313788
3335318426
3335325262
3335330206
3335336798
3335343085
3335347967
3335353522
3335361273
3335365912
3335372992
3335378607
3335386480
3335391729
3335398687
3335404669
3335409491
3335415289
3335421026
3335425665
3335432257
3335436712
3335443609
3335447210
3335453253
3335459661
3335466314
3335469366
3335477545
3335482977
3335488775
3335493353
3335498358
3335506536
3335511297
3335517828
3335521978
3335528814
3335533941
3335540777
3335545232
3335552190
3335557439
3335564336
3335569402
3335574895
3335581060
3335586492
3335591741
3335598394
3335605779
3335614446
3335618780
3335626043
3335632207
3335637578
3335643133
3335650457
3335655706
3335662786
3335667058
3335672613
3335677190
3335684209
3335689275
3335693364
3335700383
3335706060
3335711492
3335715520
3335722173
3335726140
3335732183
3335737493
3335744695
3335750554
3335755010
3335761846
3335766790
3335774236
3335779241
3335784551
3335792790
3335799870
3335804814
3335809453
3335816106
3335819768
3335826421
3335831426
3335838078
3335845097
3335850530
3335855779
3335860844
3335863652
3335871648
3335876103
3335881718
3335887883
3335895207
3335901616
3335906743
3335910954
3335917851
3335922856
3335927189
3335934819
3335939519
3335944157
3335951481
3335956181
3335961613
3335968510
3335973454
3335980290
3335987248
3335992619
3335997868
3336003178
3336008793
3336014958
3336018315
3336026249
3336034123
3336038700
3336045475
3336049931
3336055607
3336061466
3336065861
3336072209
3336077885
3336084721
3336089054
3336094242
3336100895
3336106388
3336112797
3336119084
3336124699
3336131718
3336136784
3336143986
3336148747
3336155521
3336160160
3336165836
3336171635
3336178837
3336184696
3336188724
3336194584
3336202152
3336209232
3336213199
3336222843
3336229069
3336236088
3336242618
3336246830
3336252201
3336258182
3336264103
3336270023
3336275821
3336282718
3336287174
3336291446
3336297916
3336302738
3336307804
3336312381
3336318241
3336323795
3336329837
3336334476
3336339847
3336344242
3336350955
3336355289
3336361148
3336367069
3336374088
3336378482
3336383487
3336389957
3336394046
3336399234
3336406192
3336411502
3336416873
3336422244
3336428043
3336434329
3336440982
3336447452
3336452457
3336458438
3336465091
3336471805
3336476993
3336485782
3336491641
3336498660
3336505435
3336509402
3336516727
3336521426
3336528995
3336536197
3336543277
3336547427
3336555789
3336561221
3336567080
3336572818
3336580020
3336586245
3336591800
3336594790
3336602420
3336609744
3336615359
3336620547
3336626406
3336629641
3336636172
3336641665
3336648013
3336655276
3336661196
3336664614
3336673342
3336679568
3336684817
3336691043
3336695376
3336702090
3336708926
3336713076
3336720767
3336725893
3336730593
3336736880
3336742129
3336748904
3336754275
3336761050
3336766848
3336771670
3336778567
3336784243
3336793642
3336801882
3336809756
3336815371
3336819033
3336828737
3336834780
3336839724
3336845888
3336849978
3336856447
3336861391
3336867678
3336875124
3336880922
3336886049
3336892397
3336898012
3336902956
3336908022
3336914370
3336920778
3336926760
3336932497
3336936891
3336942812
3336946047
3336952577
3336956667
3336963320
3336969850
3336976564
3336981325
3336986879
3336992555
3336997743
3337003786
3337009218
3337015932
3337020082
3337026125
3337032045
3337037172
3337042970
3337048341
3337055910
3337061281
3337066469
3337071107
3337079774
3337085695
3337091554
3337096437
3337102174
3337106508
3337113100
3337119935
3337127077
3337131532
3337138429
3337143251
3337148378
3337153749
3337161012
3337165529
3337172059
3337179811
3337187074
3337192811
3337199403
3337208070
3337213258
3337222169
3337228822
3337235353
3337240174
3337247071
3337252259
3337260987
3337268128
3337276063
3337283143
3337290650
3337295472
3337302552
3337308961
3337315736
3337322877
3337331300
3337338441
3337346558
3337354737
3337361207
3337367310
3337374573
3337384827
3337392640
3337403931
3337412171
3337420594
3337427430
3337435059
3337440552
3337446168
3337453980
3337462769
3337468323
3337476197
3337482178
3337489014
3337495850
3337502564
3337507569
3337515564
3337524536
3337528504
3337534912
3337544129
3337550110
3337559448
3337566101
3337572449
3337579590
3337586792
3337596131
3337600769
3337608765
3337613037
3337623291
3337629761
3337637573
3337643799
3337652771
3337661072
3337664917
3337675049
3337681396
3337687256
3337694702
3337701233
3337710205
3337716369
3337730224
3337739685
3337749817
3337758056
3337768066
3337776306
3337783935
3337793029
3337802978
3337810485
3337817443
3337825561
3337831543
3337837951
3337842407
3337846557
3337851684
3337856994
3337861450
3337866699
3337871154
3337875060
3337879943
3337885009
3337889404
3337893859
3337898254
3337903137
3337907592
3337912048
3337915893
3337919128
3337924987
3337930114
3337936462
3337941833
3337944762
3337954162
3337959533
3337964416
3337970336
3337974975
3337981506
3337986571
3337991943
3337997985
3338003051
3338009704
3338015441
3338019103
3338024047
3338029113
3338033446
3338041930
3338047790
3338052855
3338060668
3338066649
3338071776
3338076598
3338083251
3338089537
3338094786
3338100341
3338104857
3338109008
3338114318
3338119323
3338124327
3338130431
3338134825
3338140502
3338145446
3338151305
3338155638
3338161315
3338167723
3338171813
3338176940
3338181395
3338186888
3338192565
3338197753
3338202574
3338209288
3338213683
3338220091
3338226134
3338231688
3338235899
3338242491
3338247923
3338254820
3338259093
3338264830
3338270079
3338276121
3338280272
3338287596
3338293150
3338298521
3338304259
3338309691
3338314390
3338320494
3338326170
3338330382
3338337584
3338343260
3338346129
3338353026
3338357420
3338364378
3338368773
3338373533
3338379820
3338386229
3338393248
3338399046
3338404966
3338410704
3338415464
3338420347
3338428160
3338434263
3338438841
3338445494
3338450437
3338456175
3338461668
3338466245
3338475401
3338481260
3338486936
3338493589
3338499143
3338504698
3338510679
3338515440
3338522520
3338528013
3338534666
3338540708
3338544859
3338551450
3338555662
3338562131
3338567442
3338574583
3338580747
3338586973
3338594663
3338599241
3338605833
3338610898
3338617429
3338623960
3338631528
3338639219
3338644224
3338651487
3338656308
3338662534
3338667966
3338674436
3338680906
3338686094
3338691892
3338696775
3338701657
3338707090
3338712644
3338718564
3338723569
3338729856
3338735532
3338741025
3338745847
3338751340
3338756345
3338761350
3338769528
3338773862
3338780759
3338784787
3338791318
3338795102
3338801877
3338807004
3338812497
3338818417
3338823544
3338827817
3338833493
3338838132
3338843442
3338847775
3338854794
3338862057
3338866940
3338871762
3338879208
3338883969
3338888608
3338895627
3338901364
3338907468
3338911618
3338919919
3338925656
3338931088
3338936825
3338942807
3338947873
3338954403
3338960934
3338967099
3338970089
3338976559
3338984555
3338989804
3338996518
3339001156
3339008053
3339030575
3339038204
3339044430
3339050045
3339056210
3339061825
3339066830
3339072750
3339077755
3339085079
3339091549
3339096188
3339103146
3339109371
3339112484
3339119930
3339124630
3339132015
3339137020
3339142879
3339149227
3339155514
3339161190
3339165462
3339172726
3339176571
3339182613
3339189632
3339195736
3339202083
3339208736
3339214046
3339220882
3339226681
3339233944
3339240597
3339245601
3339254146
3339259639
3339264644
3339270137
3339275325
3339280697
3339285274
3339291744
3339299129
3339304866
3339307674
3339314693
3339318904
3339325923
3339330257
3339336238
3339342952
3339348201
3339355098
3339364009
3339368587
3339374141
3339379024
3339385982
3339391170
3339397884
3339403255
3339407771
3339413387
3339418575
3339424312
3339429439
3339437373
3339442867
3339448299
3339453487
3339459773
3339465266
3339470332
3339475520
3339480708
3339486568
3339491939
3339498286
3339503596
3339508845
3339514949
3339521480
3339528438
3339533748
3339542293
3339546565
3339551753
3339557307
3339561213
3339565364
3339571711
3339577388
3339584834
3339589167
3339595698
3339599910
3339603755
3339609492
3339614619
3339620112
3339625300
3339631953
3339636286
3339642390
3339646296
3339651789
3339656489
3339663569
3339667780
3339674922
3339678950
3339684138
3339690241
3339694392
3339699091
3339705744
3339709834
3339716242
3339720698
3339726313
3339730402
3339735773
3339742182
3339746455
3339752375
3339759699
3339765253
3339769770
3339775935
3339780451
3339788935
3339793024
3339800287
3339805659
3339813532
3339820124
3339824518
3339832453
3339838312
3339844111
3339851008
3339855707
3339861384
3339866388
3339872004
3339876825
3339880976
3339886713
3339892756
3339897943
3339902094
3339909052
3339913629
3339918268
3339923334
3339930292
3339934626
3339941706
3339947199
3339952509
3339957453
3339963678
3339968256
3339974237
3339980951
3339986505
3339992670
3339998163
3340003290
3340009393
3340012506
3340020075
3340027155
3340031549
3340036188
3340043085
3340047662
3340053155
3340059564
3340064813
3340072259
3340079889
3340085931
3340089715
3340096246
3340100885
3340106317
3340111444
3340117731
3340124200
3340132135
3340136224
3340143426
3340150140
3340156305
3340162774
3340168390
3340175348
3340180474
3340184381
3340191705
3340196099
3340203424
3340208306
3340214593
3340219476
3340225824
3340232171
3340236810
3340241509
3340248834
3340253106
3340259698
3340266107
3340272088
3340278741
3340283196
3340290215
3340295525
3340300713
3340306573
3340312981
3340319512
3340325066
3340329400
3340335076
3340341058
3340349236
3340355706
3340364495
3340369744
3340376458
3340384331
3340389580
3340394158
3340401909
3340406792
3340414727
3340422295
3340427239
3340432671
3340438592
3340443841
3340449028
3340454461
3340459221
3340465264
3340471489
3340477227
3340483147
3340488457
3340494316
3340498345
3340506096
3340512017
3340514763
3340521477
3340527520
3340533074
3340537346
3340544182
3340549065
3340554802
3340561760
3340565849
3340572502
3340576531
3340583061
3340588555
3340594353
3340600212
3340605583
3340609734
3340615349
3340621086
3340625176
3340629875
3340637016
3340642082
3340649528
3340654167
3340658989
3340665886
3340671196
3340676750
3340681877
3340688286
3340694572
3340701042
3340706596
3340712639
3340717888
3340723869
3340728691
3340734184
3340740165
3340747734
3340754997
3340759697
3340764763
3340770561
3340775627
3340780143
3340786735
3340793205
3340799430
3340805473
3340811576
3340816581
3340822380
3340827201
3340831962
3340838798
3340845268
3340851371
3340856986
3340865775
3340872489
3340878776
3340886344
3340892570
3340897209
3340903373
3340909293
3340915763
3340922843
3340927726
3340932914
3340939506
3340945182
3340953483
3340958182
3340963554
3340970328
3340975150
3340981681
3340988395
3340995231
3341001334
3341009086
3341019156
3341023490
3341029349
3341036246
3341040763
3341046927
3341053824
3341059317
3341064566
3341069754
3341075248
3341080619
3341083487
3341091910
3341098929
3341103507
3341107962
3341114859
3341119620
3341125785
3341130301
3341136527
3341142630
3341148490
3341154654
3341158316
3341164908
3341169791
3341174613
3341179251
3341185538
3341191702
3341197501
3341202872
3341208487
3341213553
3341219168
3341224905
3341229483
3341234976
3341243643
3341248343
3341254629
3341260489
3341265982
3341271414
3341277640
3341283987
3341288931
3341295828
3341302420
3341307974
3341313223
3341319449
3341324270
3341330374
3341335745
3341343191
3341348074
3341353567
3341360525
3341365347
3341372915
3341378653
3341384573
3341390493
3341395742
3341401541
3341406424
3341411978
3341417776
3341422781
3341429190
3341435232
3341444448
3341451406
3341456167
3341461599
3341466177
3341470938
3341480642
3341496145
3341507864
3341517629
3341522573
3341529531
3341536428
3341541555
3341548818
3341554128
3341560293
3341565664
3341572256
3341578298
3341586355
3341593313
3341599111
3341604970
3341611196
3341616201
3341624318
3341627920
3341636403
3341643361
3341649404
3341655446
3341661367
3341669851
3341674733
3341681752
3341688161
3341694142
3341702565
3341709340
3341715993
3341722280
3341729543
3341733510
3341743703
3341752614
3341757924
3341764699
3341771352
3341778920
3341784291
3341791249
3341798573
3341805776
3341812489
3341817677
3341824086
3341832570
3341840688
3341846425
3341853932
3341861195
3341869618
3341876088
3341881581
3341889027
3341897206
3341902516
3341908375
3341916615
3341924733
3341930897
3341935597
3341940236
3341946766
3341951466
3341958119
3341962696
3341970082
3341975880
3341980946
3341988881
3341994923
3342002064
3342008290
3342012501
3342018055
3342027699
3342033009
3342039845
3342043812
3342051136
3342056080
3342064320
3342071339
3342078053
3342084705
3342089771
3342096180
3342102223
3342106495
3342114307
3342120228
3342126820
3342132557
3342138050
3342146717
3342151417
3342155811
3342162037
3342167652
3342172047
3342178089
3342182484
3342190296
3342195850
3342201526
3342208607
3342216053
3342221729
3342230457
3342236194
3342242603
3342252002
3342258289
3342266529
3342278614
3342284290
3342291736
3342300037
3342306995
3342316150
3342320789
3342330738
3342337146
3342345508
3342351550
3342358142
3342364673
3342371936
3342379566
3342386890
3342393298
3342401111
3342406970
3342414783
3342422534
3342427051
3342435718
3342442187
3342448901
3342455249
3342462573
3342466540
3342478320
3342482226
3342490222
3342493945
3342500781
3342506274
3342513049
3342517566
3342523730
3342529406
3342534533
3342542651
3342568286
3342588427
3342606555
3342615222
3342624377
3342630236
3342633959
3342640429
3342647509
3342654101
3342659655
3342664843
3342669482
3342697985
3342707201
3342714037
3342719347
3342728075
3342733324
3342738451
3342744677
3342750231
3342756213
3342761095
3342767016
3342771776
3342778429
3342783678
3342788805
3342793566
3342798144
3342800829
3342808581
3342812426
3342817492
3342825304
3342830614
3342837572
3342843615
3342848742
3342855333
3342862658
3342867723
3342876696
3342884081
3342889269
3342896227
3342903368
3342909960
3342915270
3342921068
3342929491
3342935411
3342944994
3342953172
3342960069
3342970751
3342979479
3342987657
3342996935
3343005846
3343010606
3343018663
3343025682
3343030687
3343037645
3343042955
3343050035
3343057909
3343064622
3343071214
3343077135
3343083299
3343088426
3343094713
3343102586
3343108140
3343111192
3343118577
3343122911
3343129319
3343133836
3343140672
3343146348
3343153062
3343160203
3343164720
3343171861
3343181321
3343189012
3343197312
3343202867
3343208970
3343215196
3343219285
3343226304
3343231187
3343239060
3343242845
3343249497
3343253953
3343260301
3343268052
3343271226
3343278672
3343285813
3343290635
3343298997
3343305894
3343309129
3343315903
3343320542
3343326829
3343331101
3343336594
3343343735
3343348435
3343357102
3343361069
3343367905
3343373398
3343382126
3343388535
3343395371
3343401414
3343410996
3343416245
3343423630
3343431321
3343438584
3343442368
3343451706
3343458481
3343467636
3343473313
3343480393
3343486924
3343494492
3343501023
3343507370
3343516709
3343524582
3343531296
3343536972
3343544235
3343552658
3343560227
3343564194
3343572983
3343582138
3343587692
3343595322
3343601425
3343609848
3343616379
3343623764
3343629440
3343639389
3343646530
3343653122
3343657455
