3404170057
3404175611
3404180921
3404185499
3404191846
3404196973
3404202405
3404207837
3404212842
3404217786
3404222608
3404227796
3404232435
3404237439
3404242872
3404248670
3404254651
3404258802
3404265454
3404272840
3404278882
3404283887
3404290479
3404297071
3404303113
3404308545
3404314954
3404322705
3404329602
3404336072
3404342786
3404349195
3404354932
3404363294
3404369336
3404376782
3404382153
3404390576
3404397107
3404403699
3404410840
3404416516
3404427624
3404434705
3404446179
3404453992
3404462170
3404471081
3404481274
3404491223
3404497571
3404505322
3404512768
3404520093
3404526379
3404532483
3404538830
3404546948
3404555554
3404566296
3404573925
3404585400
3404594311
3404604199
3404613232
3404622814
3404631298
3404638317
3404645886
3404654370
3404662731
3404670727
3404677624
3404685253
3404692516
3404700512
3404708752
3404716442
3404723400
3404731701
3404738476
3404745617
3404750622
3404765026
3404772167
3404778454
3404788036
3404795788
3404802990
3404810985
3404816967
3404825268
3404833812
3404841259
3404849315
3404855602
3404865123
3404872997
3404881237
3404888622
3404895031
3404904064
3404913707
3404921215
3404928966
3404935619
3404943981
3404951366
3404958446
3404966197
3404972728
3404981456
3404990367
3404995555
3405004710
3405010753
3405020518
3405029674
3405035228
3405043956
3405049998
3405059520
3405067821
3405078319
3405087230
3405095225
3405102916
3405111949
3405118174
3405131358
3405139537
3405147654
3405156565
3405163768
3405171397
3405179393
3405186167
3405194773
3405200328
3405208811
3405215647
3405224803
3405231150
3405242198
3405246531
3405258372
3405266612
3405274851
3405281443
3405289805
3405297678
3405305918
3405314280
3405320322
3405330393
3405337778
3405346384
3405353892
3405362864
3405370371
3405377207
3405385142
3405392344
3405400461
3405408213
3405416819
3405422617
3405431162
3405437326
3405446909
3405454966
3405463999
3405469980
3405477732
3405484873
3405494150
3405502634
3405509775
3405517649
3405525461
3405532785
3405538828
3405547128
3405554331
3405561533
3405570444
3405576852
3405585031
3405593576
3405600717
3405608163
3405616586
3405623483
3405630685
3405637765
3405645395
3405654184
3405662179
3405669809
3405677499
3405685068
3405692148
3405701486
3405707589
3405717721
3405726388
3405734628
3405742990
3405749398
3405759469
3405765695
3405775399
3405782724
3405790780
3405798043
3405805612
3405815805
3405821481
3405828439
3405834847
3405843820
3405848031
3405859750
3405867440
3405873849
3405883187
3405889657
3405896920
3405904427
3405911507
3405919381
3405927743
3405934518
3405942879
3405949105
3405955941
3405967110
3405975716
3405980904
3405989510
3405996224
3406006173
3406012642
3406019722
3406027901
3406035897
3406043831
3406051461
3406059578
3406066780
3406075386
3406082405
3406090828
3406098336
3406106270
3406114083
3406122139
3406129646
3406136727
3406145088
3406151985
3406159737
3406167976
3406174690
3406180794
3406190254
3406198677
3406205757
3406211433
3406219185
3406227608
3406232246
3406243599
3406251472
3406257515
3406267097
3406274483
3406281624
3406289924
3406295601
3406303535
3406307564
3406319160
3406326545
3406333381
3406340461
3406347602
3406355842
3406361763
3406369636
3406375190
3406384101
3406390693
3406396736
3406403511
3406410346
3406416633
3406426093
3406434944
3406443427
3406448554
3406454841
3406459663
3406467841
3406473029
3406478889
3406484870
3406490363
3406496345
3406501777
3406508063
3406512153
3406521003
3406526130
3406534125
3406538093
3406546516
3406553596
3406559577
3406565375
3406573371
3406578254
3406584296
3406591010
3406597846
3406606025
3406612494
3406624457
3406631965
3406638007
3406646125
3406649848
3406656562
3406662177
3406669379
3406674018
3406679023
3406685919
3406690192
3406696173
3406700324
3406706610
3406711981
3406718329
3406722418
3406728705
3406732794
3406737860
3406745368
3406750861
3406756354
3406760748
3406766852
3406771063
3406777594
3406781744
3406787970
3406794257
3406799384
3406804510
3406809759
3406815131
3406820196
3406825629
3406831000
3406836676
3406842108
3406847235
3406852911
3406857977
3406862250
3406870062
3406873480
3406881170
3406885931
3406891119
3406896917
3406902228
3406906744
3406911993
3406918585
3406925238
3406930914
3406935431
3406941717
3406946173
3406954901
3406958380
3406965338
3406971624
3406977178
3406983526
3406989508
3406995184
3407001531
3407006964
3407012335
3407017401
3407022711
3407027960
3407034368
3407040167
3407044744
3407050298
3407055425
3407061590
3407066778
3407072088
3407078802
3407084051
3407089178
3407094366
3407099615
3407104620
3407109869
3407116277
3407122076
3407126897
3407131292
3407137640
3407142034
3407148076
3407153570
3407161443
3407166936
3407173040
3407178472
3407183721
3407189153
3407192937
3407201238
3407205938
3407212163
3407216497
3407223882
3407229741
3407235418
3407242070
3407247625
3407253911
3407258306
3407265081
3407270879
3407278569
3407284734
3407290715
3407296086
3407300298
3407305669
3407309880
3407315923
3407320195
3407328374
3407332036
3407338689
3407341802
3407353215
3407358647
3407364751
3407369939
3407374760
3407381657
3407387639
3407393010
3407400273
3407404912
3407411381
3407417607
3407422856
3407429204
3407433476
3407439946
3407447392
3407452519
3407459294
3407465764
3407471928
3407476750
3407483586
3407491520
3407497258
3407503605
3407508732
3407515812
3407520512
3407526432
3407531193
3407539250
3407545475
3407550785
3407556340
3407560978
3407567082
3407572941
3407578373
3407585026
3407591069
3407596623
3407602787
3407608464
3407613041
3407620732
3407626225
3407632267
3407638188
3407644474
3407649967
3407654484
3407661381
3407667484
3407673222
3407678288
3407682804
3407689152
3407696659
3407701908
3407706791
3407713688
3407719486
3407725346
3407730839
3407736698
3407742985
3407748844
3407755680
3407759769
3407766666
3407773563
3407778019
3407784244
3407790897
3407795841
3407802555
3407807071
3407813419
3407819767
3407824344
3407830936
3407834537
3407842289
3407847782
3407853702
3407859561
3407865055
3407870609
3407877994
3407884830
3407890506
3407895755
3407901737
3407907230
3407913455
3407917972
3407925052
3407931644
3407937137
3407943668
3407949283
3407956302
3407963321
3407969058
3407975650
3407981815
3407989444
3407996219
3408001712
3408006595
3408013003
3408018069
3408023135
3408029300
3408033633
3408040103
3408044437
3408050967
3408056521
3408062198
3408065555
3408072207
3408077762
3408083194
3408089847
3408095401
3408101870
3408106082
3408111941
3408117556
3408123172
3408128787
3408135745
3408140261
3408146487
3408151248
3408157717
3408162234
3408169009
3408173526
3408180789
3408185488
3408192691
3408198062
3408203616
3408209414
3408215090
3408222109
3408227542
3408232852
3408238406
3408245120
3408249880
3408256411
3408261050
3408266543
3408272524
3408278140
3408282900
3408289187
3408293826
3408301272
3408307253
3408312502
3408315920
3408323183
3408329470
3408335085
3408340151
3408345705
3408352846
3408356875
3408364077
3408368227
3408375185
3408379702
3408385134
3408390993
3408397524
3408402224
3408409426
3408413881
3408420473
3408425722
3408429934
3408436281
3408442202
3408448732
3408454592
3408459719
3408464846
3408470522
3408476442
3408484072
3408491579
3408495241
3408503298
3408509828
3408517092
3408523256
3408530702
3408537599
3408544313
3408549501
3408554567
3408559999
3408566774
3408572145
3408577455
3408581911
3408588380
3408592592
3408598207
3408603700
3408609438
3408615724
3408621156
3408626771
3408632448
3408640260
3408644411
3408651979
3408657594
3408664857
3408670473
3408676698
3408682008
3408687929
3408693422
3408698060
3408704591
3408709352
3408716066
3408720704
3408727418
3408730714
3408739503
3408744508
3408750001
3408755006
3408761842
3408766481
3408772340
3408778871
3408784791
3408790223
3408794679
3408801759
3408806458
3408812440
3408818543
3408826112
3408831361
3408836732
3408843995
3408849610
3408855103
3408859254
3408866883
3408873048
3408877808
3408883851
3408889222
3408895081
3408900269
3408905030
3408911866
3408916688
3408923646
3408928284
3408934754
3408937928
3408945252
3408949769
3408957703
3408963807
3408969605
3408975892
3408980286
3408988648
3408993958
3409000000
3409006958
3409011536
3409019654
3409024537
3409031556
3409036683
3409046265
3409052002
3409058106
3409062928
3409068604
3409075257
3409079407
3409086121
3409091614
3409097412
3409103760
3409108826
3409114014
3409119751
3409126160
3409130554
3409136475
3409141785
3409147095
3409153626
3409158753
3409164307
3409169739
3409174683
3409180054
3409185852
3409190186
3409196350
3409203613
3409209167
3409214722
3409220154
3409226196
3409230347
3409236328
3409241760
3409247680
3409253601
3409259826
3409264465
3409270141
3409276184
3409282043
3409286621
3409292907
3409297607
3409304809
3409310058
3409315551
3409321350
3409326904
3409333801
3409339233
3409344604
3409350280
3409355712
3409361267
3409367187
3409373168
3409378662
3409384643
3409390808
3409395385
3409400817
3409405395
3409412231
3409416992
3409423828
3409429260
3409434753
3409440368
3409445861
3409451721
3409457397
3409463134
3409468444
3409475402
3409479858
3409485900
3409490356
3409496276
3409501830
3409509338
3409515319
3409519225
3409525756
3409531798
3409536498
3409541137
3409551574
3409557494
3409563720
3409571471
3409576232
3409583007
3409587951
3409596129
3409603087
3409609496
3409614867
3409619201
3409625060
3409629332
3409636412
3409639281
3409646605
3409651793
3409656981
3409663756
3409669921
3409675292
3409679503
3409685668
3409691649
3409697020
3409702941
3409708556
3409715270
3409719603
3409724913
3409731444
3409736632
3409739623
3409746825
3409752806
3409758421
3409764098
3409769469
3409774779
3409780333
3409787352
3409791441
3409798582
3409803099
3409809935
3409815916
3409824278
3409830260
3409838499
3409843199
3409851988
3409857298
3409862791
3409868101
3409873533
3409879149
3409884764
3409892149
3409896727
3409903624
3409908629
3409915037
3409919859
3409926390
3409929686
3409938536
3409944273
3409948240
3409955259
3409961119
3409966123
3409970945
3409978819
3409984312
3409989622
3409994810
3410000120
3410005491
3410011534
3410019834
3410025633
3410030882
3410036619
3410040525
3410047300
3410051206
3410057981
3410064451
3410069761
3410076231
3410082517
3410088499
3410094846
3410099912
3410106138
3410114133
3410118894
3410125730
3410130918
3410138120
3410144041
3410149351
3410155271
3410160703
3410166746
3410171811
3410177854
3410183408
3410187986
3410193601
3410200559
3410205381
3410210813
3410216977
3410222409
3410227292
3410232907
3410238950
3410243100
3410249692
3410254880
3410260068
3410266782
3410271970
3410277646
3410283322
3410288327
3410294614
3410299680
3410304257
3410311276
3410317563
3410323178
3410326535
3410333432
3410339475
3410345090
3410350888
3410356442
3410361752
3410367246
3410373898
3410378049
3410384702
3410390744
3410396909
3410401608
3410407590
3410412106
3410418820
3410425778
3410431515
3410436642
3410442196
3410448483
3410452572
3410460080
3410464474
3410471554
3410477902
3410484005
3410488644
3410495236
3410499875
3410506649
3410511410
3410518246
3410524228
3410530026
3410535702
3410541317
3410547299
3410552731
3410558224
3410563656
3410569332
3410574826
3410580929
3410585263
3410591671
3410597714
3410602596
3410608578
3410617367
3410623348
3410631649
3410636959
3410645382
3410652584
3410657711
3410666805
3410672298
3410676144
3410681942
3410684750
3410692379
3410698605
3410703731
3410708431
3410713619
3410719723
3410725155
3410730282
3410736568
3410740352
3410746883
3410750850
3410756649
3410760494
3410767879
3410773983
3410779110
3410783382
3410788387
3410793148
3410798275
3410804073
3410809627
3410814449
3410819759
3410824459
3410829586
3410834774
3410841304
3410846248
3410851192
3410858272
3410862789
3410869380
3410874996
3410880062
3410885860
3410891109
3410896846
3410901973
3410908626
3410913143
3410920223
3410925411
3410931514
3410936214
3410940730
3410948116
3410951350
3410958980
3410964961
3410970393
3410976680
3410981380
3410987056
3410993526
3411000178
3411005733
3411011409
3411017085
3411022395
3411025813
3411033015
3411038753
3411044307
3411050105
3411055537
3411061580
3411065913
3411072505
3411078608
3411083796
3411089839
3411095210
3411101252
3411107417
3411112788
3411121089
3411124812
3411133845
3411140193
3411146174
3411151667
3411157832
3411164668
3411168940
3411175715
3411181574
3411186701
3411192072
3411197199
3411203974
3411208918
3411214289
3411219843
3411224543
3411230097
3411235224
3411240717
3411246760
3411252009
3411257563
3411262324
3411269587
3411273127
3411280634
3411286372
3411292048
3411299128
3411305170
3411310541
3411316462
3411322077
3411326716
3411333307
3411337946
3411345087
3411350336
3411355890
3411361689
3411367243
3411370417
3411377619
3411384272
3411389826
3411395685
3411401911
3411407282
3411412958
3411419428
3411425043
3411431513
3411437311
3411442987
3411447626
3411454096
3411458673
3411465082
3411469782
3411476251
3411480768
3411487177
3411491815
3411497980
3411504633
3411510126
3411515558
3411521173
3411527338
3411532831
3411538202
3411543939
3411549432
3411555109
3411561884
3411566156
3411573419
3411577936
3411584100
3411588739
3411595026
3411599786
3411606500
3411611017
3411617731
3411623102
3411628961
3411634942
3411640252
3411646966
3411653192
3411658685
3411664605
3411671502
3411676080
3411682428
3411689080
3411697809
3411703119
3411709100
3411716180
3411721673
3411727105
3411732659
3411738641
3411744683
3411750909
3411755487
3411761834
3411766839
3411772149
3411778131
3411784844
3411790460
3411795892
3411802117
3411807672
3411813409
3411819512
3411825738
3411830010
3411835809
3411841241
3411847405
3411851556
3411858697
3411862969
3411870171
3411874871
3411881402
3411886040
3411892632
3411897393
3411903985
3411908623
3411916070
3411921990
3411927544
3411932915
3411938286
3411943535
3411949151
3411956048
3411962090
3411967217
3411973137
3411978692
3411982842
3411990166
3411994683
3412000786
3412005364
3412011956
3412016655
3412023674
3412028984
3412034661
3412040825
3412046318
3412051812
3412057427
3412062859
3412068474
3412073906
3412079399
3412086601
3412094475
3412100456
3412106072
3412111565
3412117058
3412122612
3412128777
3412134331
3412141106
3412145683
3412152092
3412156609
3412162041
3412167961
3412175835
3412179253
3412187065
3412191887
3412198051
3412203911
3412209953
3412215385
3412222954
3412229851
3412235954
3412241997
3412245598
3412253959
3412261345
3412266472
3412272697
3412277275
3412283806
3412288994
3412294304
3412299736
3412304802
3412310905
3412316520
3412322013
3412326652
3412332573
3412337150
3412344718
3412369987
3412374015
3412380485
3412383354
3412390312
3412396354
3412401664
3412407523
3412411735
3412419425
3412425224
3412429984
3412435905
3412441520
3412447135
3412451469
3412458366
3412463248
3412468497
3412473502
3412479850
3412485587
3412489555
3412496268
3412500663
3412506339
3412512321
3412517631
3412520804
3412528007
3412534293
3412539298
3412544791
3412549918
3412555533
3412561088
3412566214
3412571769
3412577506
3412583548
3412588981
3412594230
3412599784
3412605094
3412610953
3412616996
3412621451
3412627982
3412633292
3412638297
3412643729
3412648917
3412655448
3412661002
3412665824
3412670279
3412676200
3412679801
3412688407
3412696890
3412703299
3412709219
3412715689
3412721488
3412727652
3412733389
3412741080
3412746573
3412752188
3412757864
3412762869
3412769583
3412773795
3412779837
3412784293
3412790823
3412795462
3412803091
3412806448
3412814505
3412820669
3412826040
3412831228
3412836416
3412842886
3412848562
3412853567
3412857962
3412863943
3412868216
3412875235
3412881399
3412886587
3412891714
3412897207
3412903677
3412909353
3412914663
3412920156
3412924795
3412930716
3412935720
3412940115
3412946463
3412952383
3412957449
3412962515
3412968069
3412974111
3412979727
3412985830
3412989919
3412996023
3413001577
3413008108
3413012380
3413019460
3413025503
3413030569
3413035207
3413041494
3413046316
3413052541
3413057180
3413064565
3413069936
3413076894
3413080923
3413087392
3413090688
3413098867
3413104604
3413109914
3413116933
3413121267
3413127614
3413133718
3413139028
3413144948
3413150136
3413156118
3413162710
3413166189
3413172841
3413177480
3413185170
3413188405
3413196706
3413201955
3413207326
3413213247
3413218068
3413224721
3413231130
3413239492
3413246144
3413251821
3413258290
3413264760
3413270314
3413275258
3413283803
3413288442
3413295033
3413299306
3413305654
3413310903
3413316396
3413322072
3413327748
3413334401
3413339955
3413345204
3413350880
3413356801
3413361134
3413368459
3413374379
3413379933
3413385976
3413391286
3413395863
3413402333
3413406972
3413414174
3413419484
3413425038
3413430897
3413436390
3413442067
3413447682
3413453908
3413459523
3413465382
3413469532
3413475880
3413481434
3413487843
3413492176
3413498951
3413504750
3413510975
3413515858
3413521168
3413528248
3413533924
3413539234
3413544789
3413548146
3413555470
3413561085
3413566639
3413573658
3413579090
3413583729
3413589527
3413595875
3413601429
3413607105
3413611500
3413618458
3413622730
3413630421
3413636280
3413641712
3413646290
3413653126
3413656483
3413664722
3413669361
3413674976
3413680775
3413686451
3413691883
3413697620
3413702991
3413707630
3413713917
3413719410
3413726124
3413730518
3413735828
3413742176
3413746753
3413757923
3413763172
3413768543
3413776783
3413783680
3413789295
3413795887
3413802967
3413809253
3413812732
3413820545
3413826404
3413831653
3413837879
3413843311
3413849109
3413853565
3413859912
3413864856
3413870410
3413875965
3413881153
3413886951
3413892505
3413899097
3413903308
3413910388
3413914417
3413921558
3413927539
3413932605
3413938586
3413944080
3413948657
3413955127
3413959705
3413968555
3413972827
3413978320
3413984180
3413989673
3413995288
3414000720
3414006457
3414012012
3414017261
3414022937
3414029834
3414033923
3414039905
3414045764
3414052478
3414057177
3414062854
3414067614
3414075488
3414078540
3414085376
3414092028
3414097644
3414103198
3414108630
3414114611
3414120349
3414125415
3414129809
3414136523
3414141162
3414148608
3414154345
3414159777
3414164416
3414169726
3414176501
3414182787
3414188708
3414195056
3414200915
3414206408
3414212023
3414217944
3414223620
3414229296
3414235094
3414241747
3414245959
3414252856
3414257555
3414264513
3414269274
3414276171
3414279406
3414286303
3414291796
3414299181
3414305712
3414313402
3414320971
3414325915
3414333361
3414337206
3414343981
3414349596
3414357409
3414363451
3414369005
3414374743
3414380175
3414385729
3414389757
3414396044
3414400255
3414408007
3414413012
3414418566
3414424181
3414429796
3414436693
3414442675
3414447985
3414452074
3414459276
3414463854
3414470384
3414475145
3414482225
3414487779
3414493517
3414498705
3414504259
3414507982
3414516222
3414522081
3414529222
3414534593
3414540575
3414545885
3414550523
3414556749
3414561754
3414568651
3414573167
3414578783
3414583482
3414590440
3414594957
3414601793
3414607347
3414614366
3414619005
3414624559
3414630235
3414635911
3414641649
3414647142
3414653367
3414659715
3414665696
3414669175
3414677842
3414683030
3414688340
3414694078
3414700181
3414705308
3414711106
3414716294
3414721360
3414728013
3414734605
3414740098
3414746141
3414752061
3414757188
3414761643
3414768723
3414774156
3414779649
3414785508
3414790757
3414796189
3414801988
3414808091
3414812302
3414819566
3414825974
3414835069
3414840684
3414845567
3414852464
3414857407
3414866074
3414873276
3414879502
3414885606
3414888962
3414896226
3414901963
3414907151
3414913621
3414917893
3414923874
3414929978
3414935898
3414941819
3414948838
3414954392
3414959885
3414965867
3414971421
3414977158
3414982773
3414988633
3414994126
3414999863
3415005478
3415011216
3415016648
3415022324
3415026413
3415033371
3415039414
3415045151
3415049729
3415056198
3415060715
3415066574
3415071213
3415077744
3415082504
3415088913
3415095383
3415100449
3415105393
3415110458
3415116074
3415121750
3415127853
3415132248
3415138168
3415142441
3415149521
3415152634
3415160202
3415165695
3415170761
3415176010
3415181015
3415186386
3415191513
3415197861
3415203476
3415209579
3415213852
3415218796
3415224228
3415229355
3415233627
3415241562
3415246933
3415251938
3415257187
3415262436
3415268051
3415273544
3415279281
3415283737
3415289962
3415294662
3415302902
3415308578
3415314132
3415321090
3415324630
3415331222
3415337265
3415342758
3415349105
3415355087
3415361129
3415367721
3415374557
3415379440
3415386276
3415391342
3415398788
3415405624
3415412154
3415416915
3415422469
3415428695
3415434188
3415439498
3415444930
3415450973
3415456954
3415461837
3415467757
3415474166
3415478927
3415485152
3415489974
3415497542
3415500899
3415508529
3415514205
3415519759
3415525435
3415530929
3415536971
3415542464
3415547957
3415553634
3415559371
3415564986
3415571212
3415577315
3415583785
3415589705
3415594954
3415600081
3415606734
3415611373
3415617232
3415621810
3415630233
3415633467
3415640608
3415646346
3415653304
3415657637
3415663191
3415670027
3415674117
3415681075
3415685591
3415691329
3415696944
3415704207
3415708479
3415714522
3415720381
3415727461
3415732832
3415738570
3415741866
3415748824
3415754500
3415759749
3415765364
3415770918
3415777083
3415783003
3415788679
3415794783
3415801558
3415806196
3415813032
3415816267
3415823408
3415829207
3415834761
3415840132
3415846907
3415851912
3415857527
3415863630
3415867964
3415874311
3415879744
3415887312
3415897871
3415903059
3415909529
3415914473
3415921736
3415925032
3415933149
3415936933
3415945112
3415951399
3415957319
3415964094
3415969709
3415975202
3415980695
3415986494
3415992780
3415998518
3416003401
3416009382
3416015485
3416021650
3416027204
3416032758
3416038740
3416044294
3416047712
3416054914
3416061140
3416066816
3416073347
3416077619
3416083662
3416089216
3416094953
3416100934
3416107099
3416111127
3416117414
3416123517
3416129133
3416133832
3416140790
3416145551
3416151288
3416155744
3416162458
3416167279
3416174237
3416180646
3416186383
3416192670
3416197797
3416203717
3416208173
3416215009
3416219648
3416226300
3416230878
3416237714
3416243451
3416248944
3416252118
3416259137
3416264752
3416270062
3416277814
3416282269
3416288373
3416292951
3416299176
3416303693
3416309857
3416315533
3416322369
3416327069
3416332257
3416339398
3416343793
3416349957
3416355633
3416362897
3416367352
3416372784
3416378583
3416384076
3416390301
3416396405
3416402264
3416407452
3416412701
3416417706
3416423688
3416429608
3416435589
3416442975
3416448285
3416457440
3416464032
3416472760
3416479779
3416487957
3416494122
3416499188
3416504803
3416509930
3416514386
3416519574
3416525860
3416531536
3416536785
3416542401
3416547283
3416552899
3416557415
3416562908
3416570660
3416574200
3416580486
3416586895
3416591900
3416597393
3416601238
3416608074
3416613812
3416619183
3416624859
3416629742
3416634014
3416640362
3416644695
3416651836
3416657574
3416664165
3416670452
3416674969
3416682293
3416687969
3416693462
3416699383
3416705181
3416710491
3416715130
3416721050
3416725750
3416733623
3416739300
3416744549
3416750408
3416754558
3416761150
3416766948
3416774028
3416779338
3416785320
3416791790
3416795757
3416802959
3416807415
3416815105
3416821147
3416826457
3416831523
3416836833
3416842510
3416848247
3416854228
3416858806
3416865215
3416870647
3416875896
3416881999
3416886028
3416893352
3416898113
3416903972
3416908550
3416916179
3416919231
3416926128
3416932841
3416942912
3416949138
3416956035
3416961223
3416968791
3416974650
3416981853
3416987956
3416993022
3416999553
3417005351
3417011088
3417017131
3417023417
3417028178
3417034587
3417039042
3417045878
3417050639
3417057109
3417064189
3417069865
3417075785
3417081279
3417086589
3417092021
3417097270
3417103007
3417108988
3417115031
3417120707
3417126628
3417132182
3417136698
3417143534
3417148112
3417154399
3417159159
3417166056
3417172099
3417176249
3417182902
3417188334
3417192973
3417199870
3417205241
3417210917
3417215434
3417221171
3417227641
3417233195
3417239237
3417245158
3417250346
3417256510
3417262064
3417266825
3417272440
3417278544
3417285990
3417291605
3417296854
3417300150
3417308268
3417313212
3417318766
3417325846
3417331888
3417336893
3417342814
3417348978
3417353678
3417359720
3417364359
3417370768
3417376749
3417382059
3417387247
3417392435
3417398050
3417403116
3417408792
3417414591
3417420084
3417425638
3417430399
3417436502
3417441019
3417447611
3417453470
3417459329
3417464762
3417473428
3417478861
3417486246
3417491800
3417499307
3417521768
3417529337
3417537942
3417544595
3417549112
3417555460
3417561441
3417566080
3417570718
3417575418
3417582315
3417587869
3417591470
3417597207
3417602273
3417607278
3417611368
3417618814
3417623941
3417628702
3417634256
3417639016
3417643472
3417648599
3417655130
3417660562
3417665261
3417669961
3417674539
3417679422
3417684121
3417691201
3417696817
3417703042
3417708474
3417713418
3417718301
3417722940
3417729959
3417734536
3417741799
3417747293
3417751687
3417758828
3417765420
3417770730
3417776162
3417781899
3417787087
3417791787
3417798135
3417802590
3417810464
3417816384
3417821755
3417827493
3417833352
3417838540
3417842995
3417850259
3417853554
3417861672
3417867104
3417872964
3417877480
3417883340
3417889565
3417894448
3417901101
3417907082
3417912209
3417917275
3417923073
3417930092
3417934487
3417941140
3417946694
3417951821
3417957497
3417963295
3417969094
3417979287
3417984230
3417990151
3417996804
3418001870
3418007790
3418018349
3418023354
3418028725
3418035561
3418040688
3418048073
3418053688
3418059181
3418065285
3418070961
3418075600
3418081154
3418087196
3418092629
3418099526
3418104286
3418111122
3418115639
3418121742
3418128395
3418133888
3418137184
3418144630
3418150124
3418155617
3418161415
3418166969
3418172401
3418178017
3418185585
3418191505
3418196266
3418202125
3418207741
3418212318
3418218239
3418224281
3418229835
3418234596
3418241066
3418245643
3418252357
3418257606
3418263099
3418270240
3418275795
3418281471
3418287086
3418292457
3418297889
3418303504
3418307655
3418314918
3418319496
3418326637
3418330055
3418336830
3418343055
3418348609
3418354774
3418360755
3418367347
3418370704
3418377418
3418382667
3418388221
3418394202
3418399879
3418406287
3418412086
3418417457
3418422095
3418429359
3418432532
3418440650
3418446326
3418451942
3418456458
3418461951
3418467567
3418473060
3418479041
3418485206
3418490760
3418495276
3418501868
3418506263
3418512916
3418518165
3418525550
3418533118
3418539039
3418544715
3418548926
3418556983
3418561866
3418570044
3418574927
3418582373
3418587134
3418592688
3418598609
3418603797
3418609900
3418615943
3418620581
3418627173
3418633338
3418638953
3418644568
3418650733
3418656531
3418661963
3418667090
3418672888
3418678809
3418685156
3418691016
3418697852
3418703894
3418709876
3418715491
3418721167
3418726782
3418732214
3418737891
3418742773
3418749731
3418754736
3418760535
3418766272
3418771765
3418776587
3418782080
3418789221
3418793738
3418800635
3418805456
3418811621
3418816321
3418822973
3418828955
3418834204
3418839758
3418845434
3418851172
3418856787
3418862829
3418868811
3418875097
3418879614
3418887976
3418893652
3418898901
3418904394
3418910070
3418917272
3418920568
3418928747
3418932531
3418938330
3418945165
3418949194
3418955847
3418961645
3418966894
3418971899
3418979406
3418982458
3418989477
3418995275
3419000585
3419006689
3419012609
3419018468
3419023779
3419029028
3419034399
3419041235
3419046667
3419051916
3419059545
3419064245
3419071386
3419075780
3419088354
3419093664
3419100622
3419105565
3419110509
3419117772
3419123021
3419129247
3419134740
3419140233
3419146520
3419152196
3419157201
3419162877
3419169286
3419175328
3419181554
3419186132
3419192601
3419197240
3419203405
3419208043
3419215978
3419219335
3419226110
3419231359
3419236852
3419242528
3419247899
3419255040
3419260838
3419265721
3419271947
3419276952
3419283055
3419287999
3419293980
3419300511
3419305211
3419311742
3419316319
3419322911
3419328099
3419334019
3419341038
3419346471
3419351964
3419356480
3419363743
3419368016
3419375035
3419379735
3419386876
3419390965
3419397923
3419401524
3419408726
3419414769
3419420567
3419425999
3419431370
3419437352
3419443394
3419448887
3419453160
3419459996
3419464268
3419471226
3419476048
3419483494
3419486973
3419493931
3419500645
3419506077
3419509312
3419517185
3419522496
3419528050
3419533970
3419539402
3419546360
3419550083
3419559483
3419566197
3419571507
3419576389
3419582005
3419587986
3419595371
3419600559
3419606907
3419614048
3419619663
3419625401
3419632542
3419638218
3419643528
3419652988
3419658909
3419662083
3419669224
3419675205
3419680637
3419686313
3419691990
3419698215
3419703892
3419709079
3419715122
3419720066
3419726169
3419731418
3419737278
3419742771
3419747409
3419754367
3419759189
3419766697
3419773471
3419779148
3419782383
3419789463
3419795078
3419800510
3419806735
3419812229
3419817966
3419823337
3419828586
3419833957
3419840732
3419845493
3419851169
3419857089
3419863803
3419869479
3419875400
3419881015
3419886569
3419889804
3419897006
3419900241
3419909030
3419914767
3419920261
3419925082
3419930698
3419936435
3419942111
3419948276
3419954318
3419959262
3419965610
3419971164
3419977206
3419982089
3419988132
3419993503
3419998080
3420004550
3420009250
3420015719
3420021212
3420027560
3420033358
3420039523
3420045321
3420050814
3420056613
3420061862
3420067599
3420073397
3420080722
3420083956
3420092074
3420096469
3420101718
3420107516
3420113009
3420119662
3420124240
3420131198
3420135531
3420142977
3420149691
3420156039
3420161593
3420172457
3420176791
3420183505
3420189791
3420195895
3420201449
3420206210
3420211520
3420217989
3420224276
3420229403
3420235384
3420241671
3420246493
3420253878
3420259554
3420265047
3420270846
3420276766
3420282564
3420288180
3420294344
3420299898
3420306002
3420312044
3420317721
3420322481
3420328951
3420333529
3420340975
3420346712
3420352388
3420358492
3420363985
3420372286
3420378511
3420383699
3420388521
3420394686
3420399080
3420405672
3420408663
3420415682
3420422640
3420428377
3420433870
3420440340
3420444429
3420449617
3420454866
3420460359
3420467195
3420472749
3420477937
3420481050
3420489107
3420494356
3420499910
3420505403
3420511690
3420517305
3420522188
3420529695
3420535249
3420540864
3420548067
3420552888
3420559907
3420565278
3420570344
3420576997
3420581941
3420587434
3420593049
3420598420
3420603059
3420609773
3420615022
3420621797
3420627839
3420633271
3420638765
3420644685
3420649018
3420655732
3420662324
3420668977
3420677461
3420682588
3420687104
3420695588
3420701264
3420710237
3420716828
3420721223
3420727876
3420733796
3420739839
3420744660
3420751252
3420756867
3420761933
3420768647
3420774201
3420778901
3420783418
3420792878
3420797273
3420802705
3420809052
3420812897
3420821442
3420826997
3420833222
3420838349
3420842744
3420850800
3420855256
3420861970
3420868012
3420873322
3420878571
3420885041
3420889618
3420897004
3420902558
3420907929
3420913361
3420918610
3420924225
3420930878
3420936127
3420941437
3420947602
3420952790
3420959076
3420963288
3420969879
3420975373
3420981293
3420988007
3420992829
3421000641
3421005951
3421011566
3421018891
3421023224
3421029694
3421036041
3421042145
3421048676
3421055512
3421060822
3421066254
3421070953
3421077789
3421082733
3421089203
3421095428
3421100555
3421105927
3421113251
3421118011
3421124115
3421130218
3421135712
3421141693
3421152496
3421158844
3421165008
3421171844
3421178741
3421185455
3421190826
3421196075
3421204681
3421212249
3421216461
3421223114
3421228607
3421233978
3421241119
3421247772
3421253936
3421260284
3421267303
3421273284
3421278656
3421284210
3421291900
3421298797
3421302825
3421309600
3421312835
3421319976
3421325469
3421331390
3421336578
3421342803
3421348235
3421353118
3421359161
3421365325
3421370940
3421376556
3421382598
3421386993
3421395232
3421400665
3421409759
3421419402
3421428008
3421434844
3421443938
3421451018
3421461638
3421470855
3421479644
3421488799
3421496795
3421507598
3421515838
3421524688
3421534087
3421541961
3421553008
3421561309
3421569915
3421579924
3421589141
3421597686
3421606658
3421615080
3421623259
3421632353
3421641631
3421651579
3421661162
3421669157
3421678069
3421687651
3421696989
3421706694
3421715849
3421725615
3421734953
3421744902
3421753508
3421763457
3421774687
3421782561
3421791716
3421800505
3421809172
3421820707
3421831450
3421840605
3421849760
3421858793
3421867704
3421875883
3421884489
3421894621
3421904020
3421913114
3421921781
3421930326
3421939604
3421949247
3421957548
3421966825
3421975065
3421983671
3421993253
3422001249
3422010282
3422019620
3422027555
3422036954
3422044950
3422052335
3422059965
3422068265
3422075406
3422083951
3422092740
3422101590
3422109403
3422114530
3422120450
3422126310
3422132291
3422139493
3422145414
3422150663
3422157621
3422161344
3422168424
3422174893
3422179349
3422186856
3422192655
3422198209
3422204190
3422210416
3422216214
3422221402
3422227933
3422233670
3422239285
3422244962
3422250455
3422256558
3422261807
3422267972
3422273831
3422279691
3422284512
3422291898
3422297025
3422302579
3422308316
3422313748
3422318997
3422327237
3422332425
3422338223
3422344083
3422349332
3422353604
3422361111
3422365933
3422371182
3422377652
3422381863
3422389615
3422395718
3422400845
3422407132
3422413357
3422418057
3422425564
3422431240
3422437832
3422440518
3422447049
3422451382
3422457669
3422461392
3422464749
3422469448
3422474209
3422477993
3422482449
3422487881
3422491482
3422496426
3422500515
3422505032
3422509548
3422513516
3422517788
3422521939
3422526272
3422530300
3422534817
3422539333
3422543301
3422546414
3422552822
3422556667
3422560513
3422564541
3422569546
3422573635
3422578762
3422584133
3422588039
3422592434
3422595913
3422601955
3422606472
3422610867
3422613369
3422619472
3422624538
3422629299
3422633144
3422637966
3422642422
3422646572
3422651394
3422656399
3422660732
3422665066
3422669704
3422673610
3422677456
3422682277
3422697719
3422701931
3422706203
3422710842
3422714809
3422719570
3422725734
3422730739
3422737209
3422740688
3422746242
3422751003
3422755642
3422761013
3422764553
3422769496
3422774135
3422777736
3422782192
3422787075
3422791225
3422795619
3422800197
3422804592
3422808376
3422812526
3422817897
3422823635
3422830287
3422833705
3422839504
3422844142
3422849635
3422852077
3422858730
3422864406
3422868495
3422873866
3422878383
3422883083
3422886378
3422888942
3422896632
3422901881
3422905360
3422910243
3422914516
3422919582
3422923061
3422928554
3422933620
3422937587
3422942531
3422947352
3422951198
3422956019
3422959804
3422966945
3422969813
3422976283
3422978969
3422984279
3422987941
3422993495
3422996058
3423002589
3423005458
3423012294
3423017115
3423020350
3423022853
3423029689
3423035731
3423040736
3423045008
3423049769
3423055140
3423058680
3423064173
3423067897
3423073268
3423077845
3423084254
3423086940
3423092616
3423097499
3423102137
3423105006
3423112452
3423118189
3423122401
3423128932
3423132960
3423138331
3423144373
3423149989
3423155970
3423160609
3423164576
3423172266
3423176356
3423181605
3423185755
3423192103
3423198756
3423204310
3423208826
3423214564
3423220301
3423224573
3423230311
3423233546
3423241724
3423246668
3423252466
3423255823
3423262049
3423267054
3423273096
3423277979
3423283960
3423290430
3423294520
3423300745
3423307276
3423312342
3423319239
3423323938
3423327478
3423337732
3423342981
3423348536
3423356348
3423361597
3423367701
3423372339
3423378504
3423381922
3423388819
3423394434
3423398645
3423403711
3423408899
3423412012
3423419336
3423425684
3423429346
3423432092
3423440820
3423443933
3423449915
3423454431
3423460779
3423466699
3423470606
3423473657
3423481042
3423487695
3423492151
3423497095
3423504114
3423508142
3423515039
3423519739
3423524560
3423528833
3423535425
3423539697
3423546777
3423552392
3423557336
3423562768
3423566736
3423571985
3423577478
3423582788
3423586999
3423592859
3423598901
3423603112
3423606164
3423614221
3423617761
3423624658
3423629419
3423637597
3423641320
3423647241
3423652490
3423658715
3423663476
3423669641
3423674035
3423679772
3423686242
3423691186
3423696801
3423702172
3423706750
3423712914
3423717309
3423721154
3423729333
3423735131
3423739953
3423745263
3423750573
3423756799
3423761559
3423766015
3423772729
3423777245
3423784509
3423788781
3423794213
3423800133
3423805382
3423809594
3423815819
3423823083
3423827660
3423833581
3423836938
3423843102
3423847985
3423853783
3423858178
3423866295
3423873620
3423878808
3423885705
3423891930
3423896264
3423902001
3423908776
3423913048
3423918419
3423925377
3423930077
3423936547
3423940514
3423946495
3423952294
3423956566
3423962365
3423967430
3423971276
3423978356
3423982750
3423987450
3423991539
3423998314
3424004357
3424008568
3424014427
3424020592
3424026268
3424033287
3424038475
3424044457
3424049217
3424055138
3424059898
3424065636
3424070457
3424077721
3424081139
3424088951
3424094139
3424100609
3424105858
3424110619
3424115440
3424122093
3424128380
3424130455
3424141502
3424143944
3424152550
3424158653
3424163109
3424167869
3424173790
3424178428
3424185447
3424190391
3424196495
3424201744
3424207054
3424211998
3424217186
3424223289
3424228355
3424235679
3424242332
3424246666
3424252403
3424258262
3424263389
3424269859
3424276023
3424282859
3424287925
3424294334
3424298484
3424306114
3424309837
3424318504
3424322166
3424329917
3424335899
3424340293
3424345176
3424351707
3424356773
3424362022
3424366477
3424373740
3424378379
3424387351
3424394370
3424400596
3424406333
3424410483
3424416343
3424419883
3424427268
3424434165
3424438621
3424446067
3424451865
3424458152
3424465598
3424476157
3424481528
3424485618
3424491477
3424499106
3424506369
3424513144
3424519126
3424524192
3424528464
3424534812
3424539145
3424545127
3424550742
3424556052
3424560752
3424569174
3424574973
3424579184
3424584616
3424590964
3424596701
3424601279
3424607504
3424612876
3424617026
3424623496
3424628073
3424634177
3424638510
3424644186
3424649863
3424655600
3424662131
3424665976
3424671530
3424676108
3424682089
3424688376
3424693014
3424700583
3424703879
3424710837
3424714621
3424722372
3424727682
3424733298
3424738241
3424744833
3424751974
3424757895
3424762716
3424768027
3424773886
3424778280
3424784018
3424787497
3424796469
3424800558
3424806601
3424811850
3424818441
3424823202
3424828085
3424832357
3424839621
3424845419
3424851705
3424855917
3424861898
3424866232
3424872091
3424876608
3424882284
3424889303
3424892843
3424901205
3424905416
3424913290
3424918478
3424923605
3424929891
3424934225
3424940756
3424945516
3424951376
3424956136
3424962240
3424967245
3424971700
3424976888
3424982503
3424987081
3424992330
3425000387
3425007223
3425013204
3425017538
3425020895
3425031881
3425037984
3425045736
3425050924
3425055868
3425060872
3425065877
3425072896
3425079854
3425088826
3425093160
3425099874
3425103109
3425109945
3425112935
3425121968
3425125386
3425131856
3425134969
3425141622
3425146566
3425151815
3425157857
3425162618
3425169393
3425173909
3425179647
3425184163
3425189900
3425194966
3425201253
3425204854
3425212178
3425218099
3425222676
3425227498
3425233601
3425238301
3425244100
3425248616
3425250508
3425259480
3425265950
3425270284
3425277913
3425282613
3425288716
3425293721
3425303548
3425307698
3425313557
3425317647
3425325032
3425329121
3425335713
3425339985
3425346699
3425353169
3425358357
3425365010
3425370625
3425376668
3425384053
3425389729
3425396138
3425401570
3425409321
3425414387
3425419148
3425427327
3425431172
3425437458
3425443379
3425451557
3425457356
3425463276
3425468159
3425474507
3425479389
3425485432
3425490132
3425493855
3425503071
3425508930
3425513691
3425519123
3425525410
3425530720
3425535908
3425542683
3425549152
3425553852
3425560688
3425567036
3425572590
3425577412
3425581135
3425589558
3425593281
3425601215
3425606953
3425611591
3425616840
3425624592
3425630634
3425636249
3425643696
3425651813
3425658649
3425663410
3425669330
3425673542
3425680011
3425685199
3425692585
3425697956
3425706623
3425711750
3425716632
3425721027
3425727558
3425732013
3425737629
3425743183
3425747516
3425753742
3425757770
3425764972
3425770709
3425775165
3425780414
3425785419
3425791828
3425797382
3425802448
3425807697
3425812579
3425818805
3425823139
3425829669
3425834064
3425840534
3425846820
3425849200
3425857196
3425860431
3425866657
3425871600
3425877155
3425881915
3425890216
3425895221
3425900470
3425905170
3425911334
3425917132
3425922626
3425927020
3425930499
3425938312
3425944110
3425949786
3425953387
3425960345
3425965838
3425971820
3425977130
3425984393
3425989825
3425995013
3426001727
3426007586
3426012774
3426020648
3426026568
3426033587
3426038775
3426044696
3426049273
3426056048
3426060687
3426067828
3426072528
3426078509
3426085467
3426090411
3426096636
3426100237
3426107073
3426112322
3426118121
3426122942
3426129778
3426136065
3426142474
3426146624
3426153033
3426158709
3426163531
3426169390
3426174334
3426182696
3426188433
3426192889
3426198565
3426204180
3426208025
3426214007
3426217669
3426229265
3426238543
3426243365
3426248491
3426254168
3426259173
3426265581
3426270159
3426280962
3426286577
3426291582
3426297075
3426303484
3426308184
3426313128
3426319536
3426325945
3426332720
3426343096
3426349626
3426359697
3426367449
3426374407
3426380998
3426389665
3426395464
3426401140
3426407732
3426414446
3426420976
3426427446
3426436907
3426443132
3426449724
3426456804
3426463579
3426468828
3426475175
3426482378
3426490617
3426497575
3426504411
3426510026
3426514238
3426518693
3426523332
3426528764
3426533586
3426539018
3426543107
3426548112
3426553056
3426557206
3426561479
3426566179
3426570939
3426574418
3426579362
3426581804
3426587663
3426590349
3426597490
3426603776
3426608171
3426613359
3426616777
3426621843
3426624284
3426631486
3426637040
3426640275
3426644975
3426649980
3426654130
3426657670
3426663468
3426669572
3426674455
3426678483
3426683000
3426687394
3426691972
3426697892
3426703141
3426708451
3426712419
3426717057
3426720597
3426726029
3426731400
3426736161
3426742020
3426746293
3426752030
3426757279
3426763261
3426769303
3426774796
3426780106
3426785783
3426790543
3426796342
3426800553
3426806229
3426810563
3426816483
3426821427
3426826005
3426830643
3426835099
3426839554
3426844254
3426848404
3426854264
3426859818
3426864518
3426869523
3426874161
3426879776
3426885087
3426891068
3426897171
3426903092
3426908402
3426912613
3426917740
3426923905
3426927872
3426933365
3426939041
3426944413
3426949784
3426955216
3426959549
3426962845
3426970597
3426973892
3426981217
3426986588
3426993180
3426998001
3427002701
3427008927
3427013626
3427017838
3427024002
3427030167
3427035050
3427040848
3427045364
3427051102
3427054642
3427061722
3427065018
3427074417
3427080765
3427086380
3427089676
3427096146
3427100845
3427106338
3427110672
3427118790
3427123245
3427129715
3427134414
3427141739
3427147049
3427153579
3427160354
3427168106
3427173660
3427178665
3427184463
3427190139
3427195511
3427201675
3427206619
3427212539
3427219314
3427224807
3427229629
3427235244
3427240005
3427246109
3427250930
3427254837
3427264053
3427269363
3427273635
3427279495
3427284133
3427289504
3427295852
3427300674
3427307327
3427313491
3427319839
3427324905
3427331680
3427337478
3427342788
3427347244
3427354446
3427361221
3427367507
3427374282
3427379409
3427383376
3427389358
3427394790
3427400832
3427406692
3427411513
3427416762
3427421218
3427426467
3427432021
3427436538
3427439895
3427448440
3427452102
3427458327
3427461928
3427469497
3427474318
3427479873
3427484877
3427492690
3427498183
3427504348
3427509352
3427514540
3427518935
3427524916
3427529250
3427535537
3427541396
3427547560
3427551833
3427557753
3427563491
3427567702
3427573378
3427579421
3427585341
3427589919
3427595839
3427599440
3427606398
3427610060
3427616652
3427621474
3427628798
3427633498
3427640700
3427646010
3427652480
3427657545
3427665785
3427671156
3427677138
3427683546
3427689650
3427695631
3427700819
3427707350
3427713331
3427717604
3427723402
3427730360
3427736159
3427741102
3427747084
3427753248
3427757216
3427764052
3427769301
3427775648
3427780531
3427786757
3427792860
3427795057
3427803724
3427807325
3427814161
3427819288
3427828993
3427833021
3427840345
3427845411
3427851637
3427857069
3427861769
3427867994
3427875807
3427880689
3427887769
3427892469
3427898634
3427904188
3427911939
3427917249
3427925367
3427932020
3427938306
3427942396
3427948743
3427956129
3427960828
3427966810
3427971143
3427980604
3427984754
3427991346
3427997755
3428002149
3428007154
3428012647
3428017042
3428024854
3428029859
3428035230
3428039991
3428047620
3428053174
3428058484
3428065137
3428071729
3428076856
3428084302
3428087903
3428096326
3428101209
3428107190
3428110608
3428118482
3428124585
3428129529
3428135938
3428140699
3428146253
3428152845
3428156385
3428164380
3428170117
3428177381
3428183789
3428189710
3428194653
3428201611
3428207349
3428214551
3428219678
3428225659
3428232373
3428237744
3428245007
3428250012
3428256970
3428262769
3428268201
3428277234
3428285351
3428294141
3428300793
3428308850
3428315442
3428320080
3428327038
3428333691
3428338635
3428345105
3428349316
3428354077
3428361401
3428365246
3428372876
3428378552
3428384778
3428389904
3428394665
3428401623
3428408276
3428412854
3428418042
3428423901
3428428662
3428432873
3428439526
3428443981
3428450817
3428456555
3428461071
3428467236
3428471691
3428480297
3428486706
3428494030
3428499645
3428505139
3428508984
3428515698
3428519299
3428528881
3428536266
3428541210
3428548412
3428554394
3428559704
3428564098
3428570568
3428573620
3428581188
3428587475
3428592358
3428598644
3428602978
3428609997
3428614635
3428621105
3428626720
3428631115
3428637035
3428640392
3428646679
3428651500
3428660656
3428664562
3428671825
3428676647
3428682811
3428687633
3428693004
3428697460
3428706859
3428711864
3428717968
3428723522
3428728099
3428733837
3428738781
3428744335
3428749889
3428756175
3428761302
3428765697
3428769054
3428777049
3428780589
3428787853
3428793224
3428799205
3428804332
3428809886
3428814525
3428821056
3428827281
3428832774
3428837596
3428844310
3428850230
3428855785
3428861522
3428865611
3428871776
3428877086
3428883494
3428888927
3428897166
3428903270
3428909801
3428914928
3428920787
3428925181
3428931712
3428936473
3428943309
3428950389
3428955333
3428960704
3428964244
3428970469
3428976329
3428980662
3428985789
3428993480
3429000621
3429005137
3429011058
3429015391
3429019908
3429026622
3429030406
3429038462
3429042185
3429050791
3429057017
3429064524
3429073802
3429080638
3429089243
3429096995
3429102427
3429111582
3429119151
3429126475
3429134837
3429140757
3429152354
3429157603
3429169382
3429174326
3429182932
3429189951
3429192820
3429203318
3429208018
3429217173
3429221079
3429223887
3429237436
3429244578
3429250620
3429257273
3429263376
3429269968
3429278391
3429284678
3429289682
3429299936
3429307077
3429313181
3429319651
3429327951
3429334787
3429339731
3429349436
3429353952
3429364633
3429370859
3429373728
3429384592
3429389719
3429396311
3429402597
3429411325
3429417978
3429423227
3429433237
3429438364
3429446725
3429453744
3429461618
3429467660
3429472360
3429481943
3429486703
3429496103
3429503244
3429509958
3429516427
3429524972
3429530771
3429537485
3429544687
3429550729
3429559274
3429565927
3429571176
3429579355
3429586679
3429594796
3429601571
3429604562
3429616037
3429620919
3429632394
3429640817
3429647286
3429654489
3429662789
3429669015
3429674142
3429683358
3429690133
3429698495
3429705941
3429713570
3429720101
3429725533
3429735787
3429741647
3429752267
3429760506
3429769051
3429777108
3429780953
3429792855
3429798531
3429810677
3429816781
3429825631
3429833626
3429837105
3429848946
3429858223
3429865181
3429873177
3429882576
3429889717
3429897591
3429905648
3429912789
3429916146
3429929879
3429936226
3429949715
3429954170
3429964363
3429972176
3429978096
3429984810
3429989571
3430003914
3430011971
3430018318
3430023750
3430033394
3430040108
3430044685
3430049873
3430057930
3430063179
3430068855
3430073616
3430079780
3430084358
3430090584
3430094856
3430101021
3430107246
3430112190
3430118049
3430123237
3430127754
3430133308
3430137825
3430142891
3430151130
3430154854
3430162239
3430167549
3430174141
3430178901
3430185859
3430190803
3430197151
3430202217
3430208137
3430214790
3430219917
3430224739
3430229743
3430236091
3430240669
3430246589
3430251472
3430257514
3430265083
3430270210
3430276496
3430283454
3430289924
3430297187
3430302558
3430309028
3430313911
3430320808
3430324958
3430332404
3430338081
3430345710
3430351691
3430356696
3430361396
3430367988
3430372993
3430380073
3430384894
3430388740
3430397956
3430402411
3430409064
3430414374
3430421760
3430427192
3430431769
3430436469
3430444465
3430450019
3430456794
3430461554
3430465155
3430472846
3430478522
3430485968
3430492316
3430498847
3430508185
3430515387
3430521857
3430528083
3430535102
3430542426
3430550360
3430557379
3430560309
3430572882
3430580939
3430588995
3430595648
3430602789
3430609930
3430623846
3430633490
3430646796
3430653326
3430661444
3430665228
3430674567
3430684271
3430692877
3430699530
3430702765
3430717901
3430723211
3430732062
3430736822
3430746954
3430751776
3430759405
3430765997
3430774664
3430780645
3430788946
3430797369
3430800543
3430813055
3430819708
3430829046
3430837286
3430847174
3430855047
3430858465
3430869695
3430878057
3430885626
3430892950
3430901800
3430908636
3430913824
3430924017
3430931341
3430937994
3430944707
3430952398
3430958562
3430963445
3430971136
3430978765
3430988653
3430995733
3431003667
3431009527
3431014348
3431022222
3431028875
3431036260
3431042180
3431052251
3431059087
3431064885
3431072820
3431079717
3431089055
3431095586
3431098821
3431109258
3431116704
3431124028
3431130498
3431138005
3431146001
3431154668
3431162236
3431171514
3431178899
3431185246
3431194402
3431202702
3431211247
3431220708
3431223943
3431234685
3431243291
3431251897
3431259587
3431265691
3431275883
3431284123
3431291569
3431298283
3431301213
3431312260
3431319584
3431327519
3431334233
3431337101
3431349431
3431355107
3431365300
3431369877
3431378666
3431385258
3431388249
3431398381
3431406864
3431415470
3431423039
3431431217
3431437382
3431443302
3431451542
3431458805
3431464848
3431473393
3431476444
3431488102
3431494022
3431505558
3431512699
3431518620
3431524967
3431533512
3431539127
3431543766
3431552006
3431561893
3431568424
3431570621
3431579655
3431583134
3431590336
3431595280
3431601688
3431607120
3431613224
3431618168
3431623478
3431627811
3431633426
3431639225
3431644840
3431651127
3431657901
3431662235
3431668277
3431672794
3431678287
3431682987
3431687809
3431695804
3431699894
3431706485
3431711673
3431717533
3431722049
3431727725
3431732364
3431735660
3431744144
3431750736
3431755069
3431761173
3431765506
3431770328
3431775943
3431780765
3431787662
3431796451
3431801273
3431804874
3431812320
3431815860
3431821902
3431826663
3431833438
3431838870
3431844608
3431848941
3431855106
3431859439
3431866153
3431870486
3431873904
3431881961
3431887637
3431893374
3431896731
3431904178
3431907901
3431914126
3431918887
3431928164
3431931827
3431938174
3431943118
3431947818
3431952273
3431958194
3431963992
3431970279
3431976382
3431981509
3431987246
3431989199
3431997744
3432001162
3432008181
3432012942
3432018985
3432024478
3432031130
3432036379
3432042117
3432046633
3432052920
3432057314
3432064089
3432070193
3432075381
3432079958
3432086001
3432090518
3432097720
3432103030
3432110720
3432116213
3432122927
3432127749
3432133425
3432139162
3432146792
3432151125
3432157717
3432164980
3432171511
3432175844
3432179201
3432187319
3432191530
3432196535
3432201357
3432208071
3432213137
3432218508
3432224917
3432230288
3432235354
3432240114
3432245913
3432252565
3432257265
3432263796
3432269594
3432274355
3432280031
3432284731
3432290651
3432294680
3432302919
3432306642
3432313295
3432316774
3432323000
3432327944
3432334413
3432339174
3432345461
3432350160
3432356996
3432364076
3432370424
3432375795
3432383424
3432388674
3432395754
3432404115
3432409792
3432414919
3432421022
3432427980
3432434084
3432439210
3432446535
3432451845
3432457887
3432463808
3432469606
3432476930
3432482179
3432487794
3432492677
3432501466
3432505983
3432511903
3432517701
3432519655
3432528200
3432531862
3432539369
3432542726
3432549989
3432555482
3432562562
3432567872
3432573121
3432577394
3432583680
3432588258
3432594178
3432600221
3432606507
3432611024
3432616761
3432621278
3432626832
3432632691
3432636354
3432643861
3432649842
3432654298
3432659242
3432665894
3432670838
3432676087
3432680848
3432689393
3432695313
3432701112
3432711732
3432717103
3432724915
3432729432
3432736207
3432744202
3432751527
3432758057
3432764344
3432769288
3432775574
3432779969
3432786927
3432792969
3432798279
3432803589
3432809876
3432814881
3432822022
3432827637
3432833558
3432838868
3432845276
3432850281
3432855957
3432860413
3432866028
3432871827
3432876831
3432882691
3432887940
3432892212
3432895996
3432903321
3432908203
3432913880
3432918701
3432926880
3432933716
3432939087
3432943909
3432948914
3432953186
3432959107
3432964905
3432969727
3432975830
3432981323
3432987122
3432991760
3432997559
3433001038
3433006897
3433011658
3433020447
3433024536
3433030945
3433036682
3433042602
3433047119
3433052673
3433058472
3433063965
3433069885
3433074280
3433079956
3433083618
3433090637
3433096618
3433101806
3433106872
3433114685
3433118164
3433125366
3433130310
3433135376
3433139831
3433145630
3433149963
3433156860
3433162964
3433169006
3433173400
3433176757
3433184570
3433188171
3433194152
3433199035
3433206665
3433210327
3433216247
3433223144
3433228149
3433232421
3433239013
3433243469
3433250427
3433256652
3433262267
3433267883
3433273254
3433277709
3433281066
3433289733
3433293578
3433303588
3433307983
3433315856
3433319518
3433325622
3433333373
3433339172
3433346191
3433353332
3433358276
3433362731
3433368896
3433374572
3433379577
3433385314
3433389648
3433397582
3433402465
3433408629
3433413390
3433420104
3433425292
3433430724
3433436644
3433443114
3433447570
3433454039
3433458739
3433464721
3433469420
3433474364
3433478881
3433487181
3433492369
3433497130
3433501342
3433507933
3433512633
3433516295
3433525145
3433528868
3433536559
3433540770
3433548583
3433554015
3433559508
3433564269
3433569762
3433576231
3433583434
3433588500
3433595152
3433600035
3433603697
3433611876
3433617369
3433622557
3433627257
3433634093
3433638914
3433646117
3433652403
3433658446
3433665770
3433673155
3433678160
3433684874
3433692137
3433697630
3433704161
3433710875
3433716124
3433720213
3433729490
3433736570
3433743284
3433749632
3433753843
3433758848
3433765257
3433770140
3433775999
3433781370
3433789000
3433794432
3433800169
3433805052
3433811766
3433816343
3433820982
3433826841
3433834104
3433840086
3433842283
3433849973
3433853575
3433861143
3433865659
3433871519
3433876890
3433884153
3433889158
3433894773
3433901182
3433907529
3433913572
3433920103
3433924619
3433930784
3433936948
3433946165
3433950986
3433957517
3433962217
3433967954
3433973691
3433979246
3433985105
3433990232
3433995908
3434001279
3434005674
3434009031
3434016172
3434021177
3434028623
3434034116
3434040403
3434045163
3434050840
3434057004
3434062436
3434067197
