3283510087
3283514299
3283520524
3283525590
3283530473
3283535417
3283541276
3283546586
3283551347
3283557634
3283563493
3283569291
3283574784
3283580094
3283587419
3283592973
3283599321
3283604692
3283610795
3283617692
3283623368
3283630815
3283636186
3283642228
3283651322
3283659135
3283666642
3283674882
3283681962
3283688310
3283698808
3283705582
3283713944
3283724381
3283732499
3283740861
3283748063
3283754105
3283763199
3283770280
3283776200
3283784073
3283791703
3283798844
3283806229
3283814103
3283819535
3283829056
3283837967
3283845536
3283852189
3283860001
3283868424
3283874894
3283882645
3283890519
3283898087
3283905655
3283910965
3283918350
3283924027
3283929947
3283938248
3283946671
3283953201
3283963822
3283972794
3283985672
3283991531
3284000198
3284009781
3284016617
3284023819
3284030167
3284039505
3284048416
3284055008
3284062576
3284069107
3284075088
3284082901
3284088150
3284096267
3284105728
3284112869
3284119217
3284126236
3284132766
3284138809
3284146255
3284154007
3284162185
3284169693
3284177017
3284183975
3284191055
3284197525
3284205947
3284213577
3284222427
3284227737
3284237197
3284245803
3284251418
3284261001
3284269180
3284277908
3284287551
3284294387
3284302444
3284310256
3284316055
3284324660
3284332717
3284342849
3284349563
3284359511
3284367263
3284375503
3284384048
3284389480
3284400161
3284407058
3284415297
3284423476
3284429702
3284439406
3284446975
3284453933
3284461013
3284468947
3284478347
3284486159
3284491530
3284501662
3284509719
3284519179
3284527419
3284534804
3284542067
3284548232
3284556105
3284563918
3284571059
3284579360
3284585829
3284593825
3284601881
3284616347
3284629896
3284637343
3284645399
3284654494
3284660841
3284667555
3284675917
3284683424
3284691359
3284699782
3284708021
3284715407
3284721571
3284732802
3284739454
3284748671
3284758192
3284764906
3284773390
3284780531
3284786756
3284795607
3284802565
3284809461
3284816358
3284824476
3284832960
3284839186
3284847730
3284854749
3284860914
3284870863
3284878736
3284886488
3284893079
3284902296
3284908826
3284915968
3284922498
3284931592
3284940015
3284947156
3284954969
3284962232
3284970472
3284977979
3284990491
3285000013
3285006482
3285014844
3285021192
3285027784
3285035840
3285045301
3285052381
3285059217
3285066602
3285073621
3285079358
3285087049
3285093640
3285102613
3285112073
3285119458
3285125257
3285131909
3285140576
3285147717
3285154553
3285164563
3285170545
3285177869
3285186902
3285193921
3285200879
3285208508
3285217358
3285224622
3285233227
3285240246
3285247021
3285253308
3285262768
3285270337
3285278882
3285286084
3285294873
3285302197
3285310315
3285319226
3285327893
3285334851
3285343457
3285352124
3285357495
3285366345
3285371838
3285379834
3285387280
3285393627
3285399975
3285406567
3285413403
3285420300
3285427807
3285434765
3285442089
3285449291
3285456310
3285464245
3285471508
3285479382
3285486340
3285493603
3285500317
3285507641
3285516064
3285522350
3285530041
3285536266
3285544323
3285550915
3285559276
3285566784
3285573803
3285579235
3285587780
3285595348
3285604015
3285610424
3285617077
3285624706
3285633190
3285638805
3285647533
3285656383
3285664928
3285671764
3285677684
3285686595
3285692272
3285700572
3285710399
3285718700
3285730174
3285735851
3285744762
3285751781
3285759044
3285766429
3285772716
3285780895
3285787059
3285795787
3285802562
3285810191
3285818614
3285824535
3285832164
3285838084
3285844737
3285850047
3285855784
3285863475
3285869517
3285877147
3285883861
3285889232
3285895396
3285902049
3285908397
3285913585
3285920604
3285925425
3285931346
3285937877
3285943248
3285948924
3285957835
3285965037
3285973155
3285978648
3285984935
3285990184
3285996714
3286002207
3286008189
3286013682
3286019969
3286024546
3286029490
3286035594
3286042185
3286048045
3286054270
3286059641
3286064402
3286071970
3286075938
3286083079
3286088145
3286094187
3286100413
3286106089
3286110850
3286116953
3286122813
3286129404
3286134714
3286140513
3286145335
3286151316
3286157542
3286164255
3286169932
3286174631
3286179819
3286186472
3286191599
3286197031
3286202280
3286207834
3286213816
3286219065
3286225412
3286230295
3286237131
3286245493
3286252939
3286258371
3286262888
3286268808
3286276133
3286281382
3286287485
3286292978
3286298838
3286305551
3286312876
3286318491
3286325266
3286330148
3286334726
3286341562
3286348032
3286354013
3286359140
3286364267
3286370981
3286376596
3286381540
3286389352
3286395517
3286400827
3286406198
3286412241
3286417673
3286423288
3286429330
3286434640
3286442270
3286447763
3286455453
3286461374
3286466318
3286472482
3286477670
3286484445
3286489450
3286495492
3286500375
3286506418
3286513009
3286517221
3286524484
3286528634
3286534799
3286540597
3286545785
3286552072
3286557382
3286562814
3286568063
3286574350
3286579476
3286585702
3286590402
3286596871
3286601693
3286607125
3286613229
3286618600
3286623422
3286629830
3286635995
3286642098
3286646127
3286653085
3286657113
3286663400
3286669381
3286674691
3286678841
3286686410
3286691537
3286696725
3286702767
3286707894
3286712777
3286719247
3286723946
3286730416
3286735055
3286741585
3286747323
3286752450
3286758126
3286764901
3286771554
3286775765
3286783639
3286788155
3286794625
3286800057
3286805245
3286810494
3286816781
3286822213
3286826546
3286831978
3286837532
3286842415
3286846810
3286852486
3286858345
3286864693
3286869149
3286875496
3286881661
3286886727
3286893990
3286899788
3286905281
3286911324
3286916084
3286922127
3286926949
3286931770
3286938179
3286943672
3286950691
3286957466
3286962105
3286969673
3286976692
3286983955
3286989204
3286996895
3287002327
3287007698
3287014290
3287020271
3287026314
3287031563
3287037483
3287043342
3287047432
3287052864
3287059028
3287066841
3287069588
3287077949
3287080574
3287088814
3287094063
3287099251
3287105293
3287110542
3287116096
3287122505
3287126472
3287132881
3287138435
3287143257
3287148750
3287154365
3287161384
3287166023
3287172248
3287177070
3287183418
3287188667
3287194831
3287199836
3287206977
3287211921
3287216499
3287222602
3287229133
3287234870
3287239936
3287245246
3287251533
3287255744
3287262275
3287270759
3287275031
3287283515
3287288703
3287293891
3287299934
3287305244
3287311591
3287316657
3287321418
3287328071
3287332709
3287339240
3287343879
3287350287
3287354438
3287360969
3287365912
3287372077
3287377204
3287383368
3287389655
3287395820
3287400824
3287406501
3287411689
3287417365
3287422736
3287428595
3287433905
3287438971
3287445075
3287450202
3287456794
3287462165
3287467475
3287473639
3287479682
3287485907
3287490790
3287497748
3287502753
3287511115
3287518256
3287523993
3287530402
3287535101
3287540839
3287546271
3287550604
3287555975
3287559882
3287565314
3287572211
3287577704
3287582220
3287586981
3287591559
3287596442
3287602362
3287607916
3287613959
3287618475
3287624518
3287630499
3287634283
3287640814
3287644720
3287652106
3287657416
3287662176
3287667120
3287671820
3287677557
3287683478
3287688971
3287695562
3287700445
3287704168
3287711065
3287715521
3287720282
3287726812
3287733221
3287738531
3287743048
3287747381
3287753485
3287758184
3287763861
3287770880
3287777166
3287782171
3287786749
3287793585
3287799383
3287807012
3287813482
3287818182
3287823126
3287829107
3287833868
3287838323
3287844427
3287851324
3287857305
3287863226
3287868597
3287876958
3287882269
3287889043
3287894598
3287900396
3287905523
3287912176
3287917486
3287921575
3287929204
3287935125
3287940313
3287946416
3287951726
3287957586
3287962835
3287968328
3287973516
3287978521
3287984990
3287991216
3287995977
3288001531
3288007756
3288012456
3288018621
3288027593
3288033025
3288041631
3288046392
3288051641
3288058049
3288063604
3288069829
3288075627
3288080205
3288086309
3288092473
3288096501
3288102910
3288108464
3288113774
3288119451
3288126042
3288130437
3288136907
3288141667
3288148747
3288154424
3288159367
3288166142
3288171025
3288177312
3288182072
3288187566
3288193547
3288199345
3288203557
3288210637
3288214787
3288221867
3288227177
3288232304
3288237248
3288243962
3288248723
3288253850
3288259587
3288264958
3288271123
3288276433
3288283024
3288287724
3288294072
3288300175
3288304814
3288309514
3288316533
3288322331
3288329838
3288334965
3288341740
3288347782
3288354008
3288359135
3288364933
3288370304
3288376286
3288381657
3288387760
3288392887
3288397343
3288403813
3288409245
3288415775
3288421513
3288427555
3288432377
3288438419
3288443302
3288447941
3288456547
3288459232
3288467838
3288472599
3288479618
3288483097
3288489811
3288496769
3288501408
3288506779
3288513187
3288518131
3288522526
3288529850
3288534855
3288541691
3288545536
3288552189
3288557865
3288566105
3288572941
3288580265
3288585209
3288591373
3288596744
3288601017
3288607975
3288614139
3288619449
3288625003
3288631595
3288635929
3288642643
3288647892
3288653324
3288658268
3288664920
3288670597
3288676700
3288681095
3288687198
3288692691
3288697452
3288702945
3288709049
3288715701
3288719913
3288726138
3288732669
3288738162
3288742435
3288749576
3288755313
3288761966
3288766971
3288772159
3288776920
3288783511
3288788211
3288794803
3288800967
3288805606
3288811893
3288816714
3288822330
3288828372
3288833255
3288840335
3288846866
3288852054
3288858523
3288864749
3288870608
3288876712
3288882815
3288889407
3288895633
3288900393
3288906680
3288911319
3288917239
3288924441
3288930117
3288934207
3288940676
3288946780
3288951968
3288957400
3288963870
3288968936
3288974063
3288979922
3288985049
3288991274
3288995852
3289000674
3289007205
3289012393
3289018435
3289023501
3289029604
3289034121
3289040469
3289045840
3289052737
3289057864
3289064516
3289070376
3289076723
3289081911
3289086611
3289093081
3289099123
3289107119
3289116946
3289121767
3289127932
3289133669
3289138003
3289143923
3289149965
3289155886
3289160769
3289166872
3289172426
3289176943
3289183657
3289189150
3289193606
3289198793
3289204897
3289209536
3289215578
3289222658
3289226625
3289233522
3289239321
3289244265
3289250124
3289254579
3289261904
3289267458
3289272280
3289277590
3289282595
3289288088
3289294435
3289301210
3289305239
3289312135
3289317873
3289322817
3289328310
3289333315
3289339906
3289344911
3289350954
3289356020
3289363649
3289368715
3289373720
3289380128
3289387941
3289394716
3289401002
3289406618
3289411317
3289415834
3289423219
3289428346
3289434022
3289438173
3289443666
3289447633
3289453248
3289458497
3289464601
3289470949
3289476808
3289481263
3289487672
3289495240
3289500917
3289509217
3289515992
3289521363
3289528138
3289534913
3289539552
3289545900
3289551332
3289556214
3289562318
3289566835
3289572877
3289577210
3289584474
3289591249
3289598329
3289611817
3289616822
3289622193
3289627625
3289634339
3289639344
3289645387
3289651124
3289656861
3289663392
3289668519
3289673402
3289677125
3289684449
3289689393
3289694337
3289699769
3289706483
3289711304
3289717103
3289724305
3289729188
3289733948
3289739442
3289745606
3289751710
3289756775
3289763550
3289767701
3289774048
3289780518
3289785279
3289791199
3289796570
3289802002
3289808472
3289813538
3289819764
3289824219
3289829956
3289837769
3289842713
3289848999
3289853455
3289860230
3289866699
3289873352
3289878601
3289883240
3289889038
3289895569
3289901917
3289910340
3289915466
3289921997
3289926880
3289932434
3289938477
3289944336
3289948425
3289955566
3289959778
3289967041
3289971741
3289976990
3289981079
3289988220
3289994446
3289999634
3290005066
3290012329
3290016907
3290023437
3290028808
3290033691
3290039978
3290046020
3290052490
3290057983
3290063232
3290068420
3290073669
3290081238
3290086425
3290092224
3290098083
3290102722
3290109314
3290114563
3290119995
3290128418
3290135192
3290142700
3290147399
3290153015
3290157897
3290163635
3290170654
3290176330
3290181091
3290186401
3290191162
3290196533
3290202636
3290208190
3290212707
3290219116
3290223815
3290229736
3290234496
3290240539
3290245422
3290252746
3290258544
3290263732
3290269469
3290274841
3290279052
3290285522
3290291747
3290297118
3290302856
3290308227
3290314452
3290320129
3290326537
3290331481
3290337951
3290343932
3290349242
3290355407
3290359435
3290365539
3290370727
3290377196
3290384276
3290388549
3290394896
3290400695
3290405883
3290412291
3290418761
3290425048
3290430602
3290436827
3290441832
3290450316
3290455260
3290461180
3290466674
3290472716
3290477049
3290483336
3290488280
3290494322
3290500121
3290506529
3290511839
3290518431
3290523314
3290527831
3290533995
3290539427
3290545165
3290551207
3290556639
3290561400
3290565123
3290572203
3290577696
3290582396
3290588133
3290593443
3290598021
3290604063
3290608763
3290613463
3290618468
3290624449
3290630491
3290637633
3290643248
3290663023
3290669310
3290674315
3290680113
3290684446
3290690611
3290695799
3290702391
3290708860
3290712645
3290718504
3290724058
3290728392
3290734861
3290739866
3290746397
3290750608
3290756529
3290760618
3290766172
3290772398
3290778807
3290783628
3290788511
3290794248
3290798887
3290804685
3290810606
3290815061
3290821287
3290827329
3290831724
3290836912
3290842710
3290847532
3290853758
3290860105
3290864866
3290870359
3290876524
3290881284
3290886228
3290892759
3290898252
3290902097
3290907407
3290914243
3290920408
3290925718
3290932065
3290936887
3290941831
3290946714
3290953184
3290957700
3290963437
3290969236
3290974790
3290980405
3290985349
3290990659
3290995603
3291001035
3291007261
3291012021
3291018064
3291022397
3291028562
3291033506
3291039304
3291043515
3291049314
3291055356
3291059323
3291065793
3291071530
3291076535
3291082089
3291088132
3291093747
3291098203
3291104184
3291110288
3291115048
3291121213
3291125485
3291131589
3291137570
3291151608
3291157529
3291162900
3291169003
3291174252
3291180234
3291184994
3291191159
3291195737
3291201352
3291206357
3291212216
3291218136
3291224362
3291228940
3291233395
3291240109
3291244076
3291249631
3291254941
3291260922
3291266964
3291271725
3291277890
3291283139
3291287533
3291293576
3291298031
3291304257
3291309750
3291315731
3291320004
3291325802
3291332272
3291335995
3291342343
3291346676
3291352474
3291356747
3291364010
3291368954
3291374935
3291380001
3291385678
3291391293
3291395321
3291401791
3291408444
3291413326
3291420101
3291424557
3291431027
3291436886
3291441280
3291448544
3291452328
3291458981
3291463009
3291469479
3291474056
3291480038
3291485836
3291491817
3291496456
3291501949
3291506588
3291512386
3291518123
3291521847
3291528072
3291533565
3291540035
3291545894
3291551204
3291555782
3291562496
3291567135
3291573604
3291578304
3291585018
3291591060
3291595943
3291601925
3291606685
3291613460
3291618282
3291625057
3291629268
3291637508
3291642574
3291649898
3291656368
3291661373
3291667110
3291671993
3291677852
3291683895
3291688716
3291694454
3291699886
3291703548
3291710933
3291716792
3291722286
3291726924
3291732906
3291738765
3291744197
3291750789
3291756282
3291761226
3291766536
3291771358
3291776668
3291782954
3291787044
3291793025
3291797176
3291803157
3291808650
3291814509
3291821528
3291826289
3291833003
3291837337
3291843745
3291848445
3291853572
3291859004
3291865107
3291869807
3291876826
3291881892
3291888118
3291893489
3291900996
3291905818
3291916011
3291921748
3291927974
3291933833
3291940608
3291948237
3291953608
3291960871
3291966914
3291973384
3291979548
3291985468
3291990717
3291996333
3292002924
3292007380
3292013911
3292019770
3292024409
3292029414
3292035578
3292040705
3292046809
3292051752
3292057978
3292063166
3292069209
3292076350
3292081232
3292087824
3292092402
3292097773
3292104243
3292108759
3292114069
3292120600
3292125483
3292130915
3292137385
3292141535
3292147822
3292153620
3292159845
3292168451
3292172846
3292179072
3292184321
3292190363
3292196039
3292200922
3292207087
3292211420
3292216608
3292222284
3292227533
3292233881
3292238764
3292244684
3292249567
3292254816
3292260858
3292265253
3292271723
3292276300
3292282953
3292288446
3292294367
3292300348
3292305719
3292310663
3292316034
3292322382
3292327692
3292334222
3292339044
3292345575
3292350519
3292356561
3292363031
3292368036
3292373895
3292378534
3292384820
3292389825
3292393915
3292401605
3292406549
3292413141
3292417169
3292423456
3292428155
3292434137
3292440240
3292446283
3292451837
3292458856
3292464837
3292470575
3292475946
3292483087
3292489618
3292494928
3292499810
3292506158
3292510980
3292516900
3292523126
3292528680
3292532769
3292538446
3292545587
3292550775
3292556573
3292561761
3292568475
3292573419
3292578973
3292586297
3292590508
3292597039
3292602960
3292607659
3292613152
3292619378
3292624566
3292631097
3292636529
3292642083
3292647332
3292654290
3292661065
3292665948
3292671197
3292678033
3292683770
3292691216
3292697503
3292705376
3292710015
3292717339
3292723015
3292727776
3292732842
3292737847
3292743706
3292749688
3292755181
3292759636
3292765191
3292770989
3292775811
3292781853
3292787224
3292793328
3292798455
3292804375
3292810967
3292816277
3292822441
3292827935
3292832634
3292837578
3292843743
3292849053
3292855217
3292861260
3292865288
3292873284
3292878472
3292883660
3292889519
3292895744
3292900566
3292906609
3292913384
3292918938
3292923943
3292929009
3292935234
3292940239
3292945000
3292952934
3292957024
3292963432
3292969719
3292974724
3292979118
3292986381
3292993217
3293000969
3293006523
3293013176
3293019279
3293023552
3293029838
3293034721
3293040397
3293046806
3293052177
3293057121
3293062919
3293067924
3293073173
3293079582
3293084404
3293091056
3293096061
3293101005
3293107475
3293112419
3293117729
3293123832
3293128898
3293134819
3293140373
3293146720
3293151664
3293159599
3293164360
3293171195
3293176750
3293181754
3293187370
3293192314
3293197379
3293204704
3293211540
3293221793
3293228019
3293233146
3293239738
3293245780
3293250541
3293260184
3293264396
3293269767
3293276603
3293282035
3293288016
3293292777
3293298270
3293303519
3293307914
3293314933
3293320121
3293326285
3293331168
3293337516
3293344108
3293348197
3293354056
3293358207
3293366263
3293371146
3293377860
3293383109
3293388297
3293393424
3293400016
3293405448
3293411368
3293416617
3293421439
3293427909
3293432730
3293437674
3293443778
3293452994
3293458792
3293465140
3293470633
3293477286
3293482596
3293488638
3293493155
3293499381
3293506278
3293510550
3293518118
3293522879
3293528006
3293533560
3293540274
3293546072
3293551260
3293555838
3293562552
3293567191
3293572440
3293579153
3293585257
3293590201
3293596426
3293601431
3293607352
3293611197
3293617178
3293624075
3293628287
3293634024
3293637747
3293644949
3293650015
3293654898
3293659964
3293666433
3293671499
3293676443
3293680960
3293687063
3293691519
3293697561
3293702322
3293708364
3293712576
3293718191
3293732412
3293740835
3293746694
3293752554
3293757376
3293762625
3293767019
3293771047
3293778494
3293785208
3293789358
3293794546
3293799917
3293803762
3293809927
3293815847
3293820120
3293825674
3293829519
3293836233
3293841360
3293846670
3293852590
3293857046
3293862722
3293867361
3293872488
3293876882
3293882253
3293889883
3293895193
3293899770
3293904043
3293909658
3293914358
3293919423
3293924489
3293930288
3293934682
3293940236
3293944692
3293949392
3293954946
3293959523
3293966420
3293970937
3293975148
3293980886
3293985830
3293993703
3294001088
3294006215
3294011769
3294016957
3294022206
3294026662
3294032033
3294039174
3294044484
3294049001
3294054677
3294058827
3294064260
3294069692
3294075002
3294080678
3294085011
3294090871
3294095387
3294099599
3294105153
3294110890
3294115407
3294122609
3294129323
3294135121
3294139516
3294146779
3294152394
3294158192
3294163197
3294169057
3294174062
3294180470
3294185170
3294202138
3294207387
3294214650
3294220387
3294226185
3294234791
3294243702
3294250233
3294257679
3294264454
3294270619
3294279347
3294286183
3294292958
3294299488
3294306752
3294313221
3294319630
3294327504
3294334400
3294341603
3294349354
3294356251
3294363697
3294371021
3294379505
3294386585
3294394703
3294401112
3294408985
3294416126
3294423695
3294431385
3294439381
3294447193
3294455006
3294462025
3294469532
3294477283
3294484852
3294493275
3294499866
3294509022
3294517078
3294524524
3294532154
3294539356
3294545704
3294551746
3294556751
3294562549
3294569751
3294575000
3294580921
3294585498
3294593799
3294598987
3294604114
3294609119
3294615161
3294620594
3294626758
3294633289
3294640186
3294645130
3294650623
3294655628
3294661670
3294666370
3294671985
3294679553
3294684619
3294689319
3294695606
3294700061
3294706531
3294712329
3294718677
3294723621
3294729480
3294735034
3294740588
3294746753
3294751758
3294757617
3294763232
3294768420
3294773547
3294781543
3294788135
3294795642
3294801623
3294808032
3294814319
3294819079
3294824817
3294830920
3294837695
3294843188
3294848315
3294854663
3294860156
3294866259
3294869983
3294875781
3294884448
3294889453
3294894519
3294899524
3294905810
3294910754
3294916918
3294922839
3294928393
3294933520
3294939318
3294944384
3294949572
3294955920
3294961413
3294968127
3294973498
3294979296
3294984423
3294989611
3294995898
3295001879
3295006884
3295014208
3295018420
3295024767
3295030199
3295035082
3295040636
3295047350
3295054064
3295058337
3295064928
3295070605
3295075915
3295081591
3295088610
3295093859
3295100512
3295106005
3295112414
3295117541
3295123766
3295129748
3295135424
3295140917
3295146959
3295152269
3295158251
3295163500
3295169848
3295174974
3295179735
3295186327
3295190905
3295197741
3295202379
3295209215
3295215746
3295220018
3295226549
3295232714
3295238146
3295244066
3295249376
3295256151
3295261461
3295267259
3295272447
3295277147
3295283800
3295288439
3295295152
3295300096
3295306627
3295312608
3295320299
3295326769
3295332933
3295338426
3295342210
3295349474
3295353258
3295360643
3295365282
3295370164
3295374986
3295381456
3295387926
3295392686
3295398973
3295402940
3295409959
3295415758
3295420823
3295426500
3295432969
3295437974
3295444810
3295449998
3295456102
3295461168
3295467454
3295473375
3295478502
3295485032
3295490709
3295496934
3295502000
3295507737
3295514573
3295519822
3295524278
3295530076
3295537339
3295542283
3295548326
3295555039
3295559190
3295565660
3295570725
3295577439
3295581284
3295587876
3295593736
3295598496
3295606309
3295612229
3295618333
3295624070
3295629258
3295635239
3295641770
3295646165
3295652817
3295657456
3295664048
3295668748
3295675400
3295679612
3295686204
3295691514
3295696335
3295702134
3295708359
3295713181
3295719651
3295726609
3295732956
3295738266
3295742783
3295749436
3295753891
3295760788
3295767685
3295772446
3295778061
3295784104
3295789048
3295793747
3295799790
3295804551
3295812485
3295818222
3295823410
3295828232
3295834519
3295840927
3295848496
3295854904
3295859970
3295867356
3295872116
3295878159
3295882614
3295889023
3295895065
3295900070
3295906113
3295912460
3295917282
3295922043
3295929001
3295934616
3295941086
3295945663
3295951523
3295956894
3295962509
3295967758
3295973129
3295979599
3295985702
3295990219
3295995102
3296000900
3296007736
3296013717
3296019211
3296025375
3296030624
3296036422
3296042221
3296046676
3296052780
3296059494
3296064132
3296069137
3296075180
3296080246
3296086349
3296092269
3296099533
3296104599
3296111007
3296114913
3296121261
3296126327
3296132369
3296137985
3296145797
3296150924
3296155746
3296162032
3296167404
3296172164
3296179061
3296184249
3296190719
3296195663
3296200668
3296205795
3296212142
3296219100
3296225204
3296230270
3296235763
3296242171
3296247176
3296251876
3296259750
3296264632
3296270675
3296275802
3296280807
3296286910
3296291793
3296300887
3296305953
3296313094
3296318160
3296324691
3296329635
3296335555
3296340865
3296346846
3296353621
3296359115
3296366195
3296373763
3296378707
3296384383
3296390487
3296394759
3296401107
3296408309
3296412520
3296418868
3296425704
3296430892
3296436507
3296441939
3296446761
3296454878
3296462142
3296471053
3296476485
3296480757
3296487410
3296491744
3296498763
3296504256
3296509505
3296518233
3296523726
3296530196
3296534712
3296540022
3296545637
3296549727
3296555525
3296561812
3296568220
3296575178
3296579878
3296584700
3296589766
3296595686
3296601362
3296607222
3296611983
3296617598
3296622236
3296627852
3296632490
3296636824
3296644636
3296650374
3296655134
3296661116
3296667158
3296674177
3296679365
3296684919
3296690779
3296697493
3296703352
3296708845
3296714094
3296719038
3296726179
3296731489
3296737654
3296742597
3296748457
3296754621
3296759016
3296763654
3296772077
3296776228
3296782331
3296788252
3296792585
3296799970
3296807172
3296810041
3296819318
3296827558
3296833601
3296841596
3296847211
3296853864
3296859846
3296864545
3296872297
3296878095
3296885358
3296893964
3296899885
3296905439
3296910627
3296918378
3296923749
3296929426
3296934797
3296942304
3296947187
3296953901
3296960004
3296966718
3296972089
3296978131
3296984540
3296990216
3296995160
3297001264
3297006086
3297013593
3297018659
3297024701
3297029828
3297035199
3297040875
3297046552
3297052777
3297057050
3297064008
3297070233
3297074017
3297079999
3297086469
3297092206
3297098676
3297103070
3297110150
3297115155
3297121320
3297127484
3297133771
3297139386
3297145489
3297150738
3297155682
3297166180
3297172040
3297177838
3297181927
3297188458
3297194317
3297200665
3297204938
3297210003
3297216778
3297221051
3297227276
3297235150
3297239605
3297245160
3297250775
3297255902
3297261517
3297267865
3297273175
3297277996
3297283062
3297288739
3297294781
3297300885
3297306500
3297310894
3297316448
3297322430
3297328106
3297333721
3297339520
3297344891
3297351910
3297357037
3297364727
3297370953
3297377178
3297382916
3297387493
3297394451
3297399456
3297404095
3297410931
3297416546
3297421612
3297427044
3297433025
3297436993
3297442364
3297449200
3297453289
3297459881
3297466289
3297470135
3297475445
3297482159
3297486919
3297492595
3297498028
3297504253
3297510723
3297516399
3297521221
3297528301
3297533794
3297538433
3297543987
3297550518
3297555767
3297561687
3297567913
3297573589
3297578594
3297585125
3297591533
3297597820
3297603069
3297610271
3297616130
3297622234
3297628093
3297632671
3297638408
3297643291
3297649639
3297654338
3297659709
3297665630
3297671245
3297676738
3297680766
3297687175
3297692180
3297699321
3297704082
3297709270
3297714641
3297720073
3297726543
3297732707
3297740520
3297744853
3297751323
3297756023
3297761638
3297768901
3297772685
3297779155
3297784831
3297789165
3297796428
3297804362
3297810588
3297815593
3297821208
3297827006
3297831340
3297836894
3297842997
3297847941
3297853618
3297859538
3297864665
3297870280
3297875468
3297881999
3297887370
3297892375
3297898112
3297904093
3297908732
3297915873
3297920329
3297926493
3297932841
3297939250
3297944071
3297950907
3297955790
3297960063
3297967448
3297972880
3297978861
3297985880
3297990458
3297996684
3298002665
3298008402
3298014506
3298020548
3298025370
3298031351
3298037516
3298042094
3298048563
3298053019
3298060709
3298066691
3298072977
3298079874
3298084086
3298090311
3298098002
3298103495
3298109415
3298113932
3298120279
3298126383
3298132975
3298139383
3298144816
3298151041
3298155802
3298160563
3298167398
3298172098
3298177835
3298184488
3298190103
3298194864
3298201334
3298206278
3298213236
3298218607
3298224405
3298229654
3298235575
3298242166
3298248270
3298253885
3298260965
3298266702
3298274088
3298281778
3298285989
3298292703
3298297891
3298303751
3298310037
3298314615
3298320596
3298327615
3298331888
3298338724
3298344644
3298349344
3298356119
3298361551
3298367715
3298372476
3298379007
3298385965
3298390603
3298396707
3298402749
3298408487
3298413919
3298419412
3298425638
3298430520
3298436319
3298442605
3298448343
3298455972
3298462381
3298468240
3298474588
3298480691
3298486184
3298492715
3298497659
3298503640
3298509866
3298515969
3298523294
3298528787
3298533669
3298540505
3298546426
3298557290
3298564370
3298568948
3298575051
3298579629
3298586282
3298592080
3298598061
3298602822
3298608682
3298614724
3298618996
3298625405
3298632058
3298637185
3298642495
3298648965
3298653237
3298659768
3298665688
3298670266
3298676186
3298681069
3298688943
3298694375
3298699563
3298705422
3298710427
3298715493
3298721596
3298726479
3298732644
3298738259
3298743508
3298749794
3298754189
3298761452
3298769081
3298776772
3298782631
3298787392
3298793434
3298798134
3298803200
3298809365
3298816628
3298822975
3298828041
3298832924
3298838906
3298844704
3298849037
3298855080
3298860878
3298865334
3298871803
3298877236
3298883583
3298888588
3298894142
3298900673
3298906044
3298910622
3298915749
3298922035
3298928505
3298933815
3298940285
3298944313
3298950478
3298955238
3298961159
3298967323
3298971535
3298978981
3298983742
3298989967
3298995033
3299000953
3299006630
3299010597
3299018348
3299023964
3299033424
3299038490
3299044288
3299050636
3299057594
3299067543
3299072914
3299077735
3299083412
3299088417
3299094398
3299101356
3299106422
3299112586
3299117469
3299122901
3299127296
3299131935
3299139625
3299144325
3299150550
3299155555
3299162025
3299166541
3299172584
3299177223
3299183143
3299188148
3299194007
3299199073
3299204993
3299211524
3299217323
3299221839
3299229835
3299235694
3299242347
3299247291
3299252357
3299259009
3299265113
3299269874
3299277137
3299283362
3299291236
3299296485
3299302466
3299309424
3299314185
3299320838
3299324866
3299331458
3299337684
3299342505
3299349097
3299353858
3299359717
3299365882
3299370520
3299375220
3299382788
3299386939
3299393409
3299399207
3299404090
3299409217
3299414160
3299418982
3299425208
3299431433
3299437476
3299443030
3299447791
3299453772
3299458533
3299464575
3299469397
3299476111
3299482275
3299487524
3299493323
3299498450
3299504248
3299509497
3299514868
3299522803
3299527686
3299534094
3299539404
3299544226
3299551123
3299555212
3299560889
3299567541
3299574133
3299579321
3299588293
3299594946
3299599707
3299605139
3299611487
3299616430
3299622595
3299626928
3299633032
3299637487
3299643530
3299649084
3299654577
3299658606
3299663305
3299670813
3299676855
3299681738
3299687841
3299692541
3299698339
3299704199
3299708654
3299716345
3299721716
3299727941
3299732824
3299739294
3299743871
3299748876
3299754736
3299760717
3299767248
3299772436
3299777990
3299783117
3299788000
3299795019
3299801305
3299808385
3299815771
3299819799
3299826330
3299829992
3299836034
3299841772
3299847814
3299852148
3299858190
3299863439
3299869176
3299873571
3299879247
3299885961
3299891454
3299896459
3299901464
3299907567
3299912450
3299918920
3299925023
3299931188
3299935827
3299941686
3299946447
3299951818
3299957067
3299962255
3299968663
3299972692
3299978917
3299983373
3299989354
3299993566
3299999730
3300006566
3300013280
3300018407
3300024388
3300031102
3300036717
3300042455
3300046849
3300053136
3300059606
3300065038
3300070897
3300075719
3300081273
3300088414
3300095311
3300101353
3300106419
3300112950
3300118748
3300125157
3300131444
3300135777
3300142491
3300147740
3300152745
3300161046
3300166295
3300172093
3300177891
3300184971
3300190342
3300196629
3300202549
3300209507
3300215428
3300222081
3300226902
3300232945
3300239903
3300245396
3300252232
3300256810
3300262303
3300269444
3300273716
3300280064
3300284886
3300290806
3300297276
3300304966
3300310765
3300318699
3300324070
3300329563
3300335484
3300340305
3300346226
3300349949
3300355503
3300361851
3300366734
3300372959
3300379307
3300384983
3300389622
3300395786
3300402012
3300407322
3300411350
3300416538
3300423801
3300428745
3300433872
3300441074
3300447544
3300453831
3300460850
3300464573
3300472324
3300476047
3300482578
3300486851
3300492954
3300498142
3300503574
3300508518
3300514438
3300518223
3300525364
3300530613
3300536655
3300542637
3300547947
3300552463
3300558872
3300566318
3300572055
3300577304
3300584445
3300589572
3300594882
3300601718
3300606235
3300614475
3300619907
3300625400
3300631381
3300637302
3300641208
3300647861
3300652866
3300658664
3300663669
3300667148
3300673496
3300678378
3300685153
3300691074
3300695834
3300700656
3300706271
3300712131
3300716159
3300722629
3300728976
3300736179
3300742831
3300748447
3300754733
3300763095
3300770236
3300775912
3300781711
3300786960
3300792941
3300798556
3300804294
3300809665
3300815707
3300820712
3300826388
3300831698
3300838595
3300844943
3300850985
3300855563
3300861911
3300866732
3300873263
3300879306
3300884005
3300890231
3300895968
3300900180
3300906527
3300911166
3300917941
3300922579
3300927767
3300933444
3300939364
3300944064
3300950350
3300956210
3300960360
3300966952
3300971346
3300977145
3300982638
3300986483
3300992403
3300998995
3301003085
3301013461
3301019442
3301024874
3301031344
3301036593
3301042086
3301048678
3301052889
3301059176
3301064486
3301070162
3301076082
3301082857
3301088045
3301093538
3301098482
3301105806
3301110567
3301115511
3301121492
3301127352
3301132967
3301138460
3301144808
3301149996
3301155550
3301161592
3301166658
3301171724
3301176424
3301183077
3301190157
3301195589
3301200350
3301206941
3301213777
3301221285
3301226534
3301232698
3301239107
3301244051
3301249849
3301255708
3301263582
3301267976
3301274141
3301279268
3301285432
3301290376
3301294771
3301302034
3301308137
3301313386
3301318880
3301323885
3301329439
3301336336
3301341707
3301347078
3301352571
3301356721
3301363069
3301368806
3301375154
3301380769
3301385469
3301390901
3301396211
3301402009
3301407625
3301413362
3301418672
3301424165
3301428560
3301433809
3301441377
3301446870
3301452607
3301457978
3301463594
3301471528
3301477632
3301481599
3301488374
3301493074
3301498628
3301504243
3301509797
3301515351
3301519380
3301525117
3301529511
3301534516
3301540681
3301544282
3301552277
3301557526
3301562959
3301567597
3301572419
3301577729
3301583833
3301589021
3301595368
3301602021
3301607941
3301613923
3301620332
3301624909
3301631074
3301636201
3301641694
3301648102
3301654084
3301659882
3301666779
3301671723
3301676850
3301680329
3301684784
3301689606
3301693757
3301698639
3301703949
3301707856
3301711823
3301715729
3301719635
3301723603
3301727997
3301731903
3301736176
3301741242
3301745819
3301754120
3301759247
3301762726
3301766266
3301771332
3301775666
3301780365
3301784272
3301788971
3301792328
3301797394
3301803131
3301808258
3301812226
3301816071
3301820038
3301824127
3301829071
3301833100
3301836884
3301842377
3301847138
3301851776
3301855255
3301860748
3301864227
3301869110
3301874908
3301878815
3301884064
3301887360
3301893036
3301896576
3301901581
3301906342
3301910980
3301915436
3301919952
3301923981
3301929779
3301936249
3301940216
3301945404
3301949188
3301952850
3301956879
3301962616
3301968231
3301973358
3301976471
3301981170
3301985809
3301989776
3301994598
3302000335
3302004425
3302009247
3302012542
3302017242
3302021576
3302024994
3302031036
3302034637
3302039459
3302043975
3302050445
3302055328
3302060760
3302065277
3302069488
3302074005
3302079193
3302083404
3302086822
3302091094
3302095855
3302101715
3302106475
3302111358
3302114715
3302119720
3302123687
3302127288
3302132842
3302137115
3302141204
3302145538
3302149688
3302154388
3302157867
3302163177
3302168548
3302172820
3302176849
3302182769
3302186919
3302191375
3302195769
3302202300
3302207366
3302212127
3302216521
3302222564
3302226897
3302231170
3302236968
3302241851
3302246795
3302251189
3302256438
3302261138
3302268279
3302272429
3302277617
3302282927
3302289702
3302294463
3302299956
3302304351
3302312468
3302316985
3302324248
3302328887
3302335173
3302339507
3302345244
3302350249
3302355986
3302360991
3302366667
3302373809
3302377837
3302384917
3302389250
3302396453
3302400115
3302406890
3302410491
3302417266
3302425261
3302429961
3302435393
3302439787
3302446745
3302451079
3302457366
3302469939
3302476530
3302482024
3302486906
3302490935
3302496245
3302502531
3302508147
3302514555
3302518462
3302525847
3302531828
3302537565
3302543303
3302549406
3302558806
3302564970
3302572722
3302577238
3302583037
3302587736
3302592314
3302600065
3302606840
3302612028
3302616362
3302621183
3302626982
3302631926
3302636808
3302643644
3302649076
3302653654
3302659269
3302664030
3302670988
3302675444
3302681120
3302688505
3302694364
3302700529
3302704679
3302710417
3302715788
3302718839
3302726042
3302730314
3302735807
3302742582
3302747587
3302752470
3302758512
3302763578
3302768400
3302773710
3302778654
3302786283
3302790983
3302796781
3302800077
3302807462
3302811674
3302816801
3302824247
3302829313
3302835294
3302841642
3302846525
3302850492
3302857816
3302861783
3302867460
3302874479
3302880887
3302887784
3302894864
3302901517
3302905668
3302909757
3302916898
3302921659
3302927640
3302934110
3302939420
3302944669
3302948026
3302954496
3302959256
3302964383
3302971402
3302976651
3302981046
3302986295
3302991239
3302996549
3303002957
3303007169
3303012357
3303021817
3303026334
3303032010
3303037686
3303041348
3303046903
3303052945
3303059720
3303064847
3303070279
3303075284
3303080228
3303085294
3303090665
3303096829
3303102078
3303107877
3303113370
3303118802
3303124234
3303128934
3303136441
3303142789
3303150845
3303155850
3303163418
3303168423
3303173794
3303180142
3303183926
3303190335
3303195584
3303200406
3303206570
3303212368
3303217495
3303222928
3303228848
3303234402
3303239102
3303244656
3303249173
3303255215
3303261929
3303265652
3303272915
3303278408
3303282803
3303288113
3303293118
3303298916
3303305813
3303310635
3303317288
3303322598
3303327847
3303334072
3303341580
3303350124
3303355312
3303361294
3303366482
3303371426
3303377041
3303382900
3303388760
3303391933
3303401882
3303405971
3303411831
3303416042
3303422390
3303426479
3303432094
3303437221
3303444179
3303449306
3303454555
3303460781
3303466213
3303471523
3303476894
3303485500
3303492702
3303498378
3303504116
3303507229
3303513332
3303517238
3303523830
3303528225
3303534694
3303541225
3303546291
3303550991
3303556118
3303560085
3303564601
3303571681
3303577541
3303581996
3303588100
3303592189
3303597804
3303602565
3303607082
3303611659
3303620387
3303626796
3303632533
3303636501
3303640346
3303646266
3303650173
3303655849
3303660854
3303667445
3303673427
3303679286
3303684047
3303691127
3303696193
3303705043
3303712794
3303720729
3303725123
3303731410
3303735133
3303746181
3303752284
3303757960
3303762477
3303768397
3303772853
3303777430
3303782679
3303788356
3303793178
3303800136
3303803370
3303809169
3303813929
3303818385
3303825099
3303829554
3303835719
3303841700
3303847621
3303853541
3303859156
3303864100
3303869654
3303875086
3303883143
3303886561
3303893641
3303898768
3303904322
3303910487
3303916346
3303921656
3303930018
3303934779
3303940394
3303944911
3303951502
3303955470
3303961756
3303965174
3303972620
3303979823
3303985133
3303992274
3304003565
3304008753
3304013514
3304019251
3304025599
3304032801
3304039881
3304045252
3304051783
3304057520
3304062525
3304069788
3304075464
3304080774
3304086573
3304093042
3304098658
3304103479
3304111597
3304116724
3304122217
3304127039
3304133631
3304139490
3304147669
3304152124
3304157984
3304164209
3304169153
3304176233
3304181665
3304186304
3304193140
3304199182
3304203516
3304210352
3304216394
3304221704
3304228113
3304232263
3304240076
3304245630
3304251184
3304257837
3304267175
3304277124
3304287012
3304294702
3304301538
3304308862
3304316125
3304323999
3304331872
3304338037
3304344873
3304351159
3304361963
3304369653
3304377710
3304383203
3304391382
3304399926
3304404443
3304413293
3304419152
3304429223
3304436059
3304442834
3304450585
3304458337
3304464624
3304468774
3304476464
3304485253
3304493249
3304500573
3304506860
3304513024
3304520165
3304528954
3304535058
3304542260
3304550805
3304555444
3304566491
3304574731
3304580163
3304588525
3304596032
3304601342
3304608605
3304615441
3304623742
3304629235
3304637963
3304645043
3304652062
3304657311
3304664269
3304672387
3304676659
3304685692
3304693383
3304700646
3304708947
3304717064
3304723046
3304730370
3304735680
3304743676
3304747948
3304759301
3304767296
3304773339
3304782006
3304786705
3304794518
3304801110
3304805748
3304813133
3304818810
3304826378
3304837364
3304845543
3304853050
3304858727
3304865135
3304871239
3304878441
3304884544
3304892113
3304896263
3304906517
3304912987
3304919273
3304927086
3304932823
3304938865
3304945701
3304954063
3304961693
3304968467
3304976646
3305003441
3305010521
3305018577
3305026146
3305032554
3305041343
3305046653
3305053062
3305060691
3305069053
3305074424
3305082603
3305087425
3305094749
3305104698
3305127220
3305134544
3305142234
3305148032
3305157249
3305166221
3305173240
3305180015
3305185142
3305189902
3305197593
3305201499
3305208152
3305212119
3305219749
3305225547
3305229209
3305233909
3305240134
3305245627
3305251121
3305255881
3305263755
3305270041
3305275474
3305279746
3305284934
3305290305
3305295432
3305300376
3305305625
3305311850
3305317099
3305321128
3305327597
3305331382
3305337729
3305344199
3305348716
3305354331
3305362265
3305367087
3305372092
3305377829
3305382651
3305389060
3305394797
3305400534
3305405478
3305410788
3305417136
3305421225
3305426535
3305433981
3305441611
3305445273
3305453940
3305458029
3305465659
3305471640
3305476035
3305484396
3305490622
3305500449
3305503683
3305510886
3305515036
3305521384
3305526022
3305532736
3305538656
3305544638
3305550070
3305554648
3305560873
3305566672
3305573446
3305576559
3305584677
3305589377
3305596029
3305599142
3305605185
3305611715
3305616476
3305622519
3305628561
3305635153
3305639242
3305644796
3305650656
3305656515
3305662130
3305666220
3305671224
3305679220
3305684347
3305687704
3305692831
3305698446
3305707235
3305713827
3305720297
3305729147
3305734335
3305739828
3305744711
3305749654
3305755148
3305759054
3305764730
3305769186
3305777853
3305782980
3305787069
3305793294
3305798788
3305801595
3305807271
3305813985
3305818319
3305825643
3305829915
3305836202
3305840841
3305847616
3305851705
3305857198
3305862874
3305868490
3305873983
3305879720
3305885152
3305891256
3305895589
3305900594
3305907186
3305914144
3305919515
3305925924
3305930135
3305935628
3305940633
3305945333
3305950887
3305957112
3305963094
3305968404
3305974019
3305978841
3305984883
3305989888
3305995992
3306001058
3306008138
3306013814
3306019246
3306025716
3306030721
3306035848
3306040913
3306047505
3306054585
3306060689
3306065755
3306071126
3306074361
3306083333
3306087727
3306094502
3306098958
3306104329
3306110982
3306115559
3306121968
3306126973
3306132344
3306137105
3306142842
3306148945
3306154500
3306160054
3306165791
3306171284
3306177327
3306180745
3306188679
3306192830
3306200093
3306204121
3306209126
3306214070
3306221333
3306226094
3306233601
3306238606
3306246296
3306251057
3306256306
3306262959
3306267414
3306274250
3306279804
3306285298
3306291889
3306298908
3306306294
3306313862
3306320942
3306327290
3306331745
3306337055
3306341328
3306347187
3306352619
3306358723
3306363606
3306368793
3306375751
3306381123
3306386555
3306391926
3306398273
3306403339
3306409260
3306415424
3306420002
3306424518
3306431537
3306435444
3306443439
3306448505
3306453510
3306460468
3306465595
3306470356
3306475483
3306480854
3306486408
3306493305
3306497821
3306503437
3306509113
3306515155
3306520160
3306526203
3306531086
3306537433
3306542926
3306549884
3306554889
3306561481
3306565753
3306570575
3306577289
3306582294
3306589374
3306592914
3306598895
3306605182
3306609760
3306614459
3306619830
3306627643
3306632831
3306640094
3306646686
3306654803
3306660724
3306667255
3306673358
3306680133
3306687030
3306692706
3306699237
3306708209
3306714801
3306720233
3306726581
3306732928
3306736957
3306743121
3306748919
3306755816
3306760394
3306765948
3306770648
3306778094
3306784930
3306791217
3306797259
3306801898
3306808307
3306812274
3306818438
3306825335
3306831378
3306837725
3306843524
3306848590
3306854815
3306859820
3306865985
3306871966
3306877947
3306883074
3306889239
3306894488
3306900164
3306905657
3306912188
3306918108
3306924456
3306931841
3306938311
3306944537
3306951006
3306955157
3306960833
3306966265
3306970660
3306975115
3306981341
3306987200
3306994097
3306998614
3307005083
3307009844
3307015154
3307018938
3307028155
3307033648
3307039080
3307044451
3307049944
3307054461
3307059405
3307063372
3307069414
3307073992
3307080156
3307085344
3307092302
3307096575
3307101275
3307107500
3307111223
3307116411
3307119524
3307130938
3307136492
3307142412
3307146990
3307152117
3307157244
3307162798
3307165727
3307172563
3307179094
3307185564
3307189287
3307194536
3307197405
3307204057
3307208696
3307216509
3307224443
3307230364
3307234697
3307240007
3307244524
3307253740
3307258989
3307267412
3307271318
3307277727
3307283708
3307288469
3307293108
3307299394
3307306535
3307313737
3307318071
3307324541
3307328142
3307334916
3307338823
3307344133
3307349077
3307354509
3307361894
3307366411
3307371232
3307376176
3307381974
3307385209
3307391923
3307397722
3307402787
3307409135
3307413469
3307418290
3307424943
3307430375
3307434953
3307442155
3307448747
3307454606
3307460710
3307466020
3307470597
3307475785
3307482987
3307500504
3307505509
3307510270
3307516618
3307523454
3307527543
3307532182
3307538102
3307544144
3307549088
3307553544
3307559525
3307564469
3307569474
3307576066
3307579179
3307585099
3307589677
3307596513
3307603593
3307609635
3307614945
3307619401
3307624589
3307628800
3307635209
3307640885
3307646073
3307650590
3307656022
3307661759
3307666581
3307670731
3307675797
3307678971
3307687455
3307692582
3307698563
3307702774
3307709244
3307713578
3307718460
3307724991
3307732010
3307736649
3307742081
3307748978
3307753678
3307758072
3307765091
3307771378
3307776871
3307782364
3307787613
3307795242
3307801102
3307806290
3307812149
3307818924
3307824661
3307831070
3307836807
3307842056
3307848038
3307851395
3307858414
3307863052
3307870865
3307876053
3307881241
3307887894
3307891861
3307898270
3307904068
3307910049
3307916580
3307922989
3307929764
3307935013
3307940933
3307947281
3307951919
3307958206
3307963516
3307969070
3307975967
3307981338
3307987075
3307992447
3307998611
3308005264
3308010818
3308013565
3308022659
3308027847
3308034317
3308038467
3308043533
3308048355
3308055679
3308063003
3308070632
3308078323
3308082656
3308088271
3308092483
3308097976
3308102737
3308108596
3308115432
3308120864
3308126174
3308131423
3308135574
3308140945
3308145644
3308151199
3308156997
3308162795
3308166457
3308174392
3308180007
3308185744
3308190993
3308194656
3308200088
3308206863
3308213576
3308217177
3308223586
3308228408
3308233413
3308239943
3308245254
3308252212
3308257461
3308262587
3308269973
3308273513
3308279738
3308285476
3308290786
3308297866
3308302687
3308308730
3308313918
3308319289
3308323256
3308329848
3308335402
3308340651
3308347304
3308353163
3308359572
3308367568
3308373976
3308380629
3308388136
3308393874
3308399428
3308404067
3308410658
3308416579
3308421889
3308426711
3308434828
3308439711
3308445143
3308450697
3308456862
3308461989
3308467116
3308472487
3308479079
3308484755
3308491102
3308496352
3308501601
3308506605
3308514418
3308521620
3308527785
3308533095
3308538099
3308543837
3308548292
3308554945
3308560377
3308567762
3308573134
3308581617
3308587843
3308594130
3308596144
3308607130
3308615797
3308625868
3308634413
3308643446
3308650770
3308656813
3308664137
3308670667
3308679945
3308686414
3308695143
3308703260
3308709852
3308717237
3308723646
3308727918
3308736036
3308741956
3308747327
3308753126
3308758558
3308765394
3308768568
3308777479
3308784254
3308789930
3308796827
3308802625
3308806592
3308813978
3308822278
3308828016
3308834241
3308838758
3308843885
3308849195
3308855542
3308860914
3308869825
3308878431
3308884046
3308891614
3308896497
3308903028
3308912061
3308919507
3308924146
3308932569
3308939893
3308946546
3308955396
3308961499
3308969007
3308974133
3308980115
3308987622
3308995130
3309002210
3309009107
3309017102
3309024670
3309029431
3309037549
3309042065
3309054822
3309059460
3309068677
3309075024
3309080823
3309086194
3309095776
3309103161
3309107617
3309118725
3309125928
3309132153
3309139844
3309147534
3309153821
3309161206
3309166272
3309174572
3309183239
3309192089
3309196789
3309206982
3309216565
3309222546
3309231274
3309242016
3309248242
3309256481
3309266247
3309271496
3309281384
3309287426
3309297070
3309304211
3309309521
3309318493
3309327282
3309335094
3309342419
3309350719
3309358776
3309366833
3309372997
3309379406
3309386425
3309394848
3309406505
3309415783
3309426464
3309434215
3309439281
3309448375
3309452526
3309460155
3309468334
3309474376
3309481212
3309488598
3309496532
3309502697
3309511180
3309518505
3309523510
3309530895
3309537731
3309545909
3309551036
3309561107
3309569469
3309576549
3309584117
3309590953
3309597362
3309604076
3309610973
3309617870
3309625804
3309631725
3309639537
3309647472
3309656505
3309663097
3309671397
3309679027
3309687938
3309694774
3309703563
3309712169
3309721751
3309727061
3309736705
3309742991
3309752818
3309759715
3309767650
3309775828
3309784190
3309788951
3309797374
3309804393
3309809886
3309817576
3309823436
3309831736
3309839732
3309849070
3309856028
3309861582
3309869151
3309875498
3309883677
3309891001
3309895945
3309903452
3309913706
3309924387
3309931101
3309938670
3309945139
3309951304
3309958079
3309964732
3309972239
3309980479
3309989756
3309994578
3310004465
3310011667
3310018503
3310030039
3310038218
3310044504
3310056345
3310063791
3310071543
3310077646
3310089487
3310097422
3310105844
3310113291
3310120188
3310127878
3310137155
3310145456
3310152841
3310159006
3310165659
3310172861
3310180490
3310185312
3310193552
3310202341
3310208811
3310216623
3310221811
3310230539
3310237192
3310245309
3310249704
3310258371
3310265756
3310271738
3310279611
3310304819
3310312509
3310319650
3310329355
3310338998
3310345529
3310351205
3310361337
3310370370
3310375863
3310383554
3310390145
3310393808
3310402291
3310407785
3310413949
3310418283
3310423654
3310430001
3310435006
3310440011
3310446176
3310451852
3310457406
3310462472
3310466989
3310472787
3310478341
3310483834
3310488656
3310494332
3310500802
3310504769
3310509103
3310515267
3310520272
3310526376
3310531380
3310537240
3310542367
3310546700
3310553658
3310557503
3310564278
3310568978
3310574593
3310581124
3310586495
3310592232
3310597726
3310603646
3310610177
3310615059
3310620308
3310625985
3310632515
3310637887
3310644661
3310650277
3310659981
3310668221
3310673104
3310679024
3310685494
3310690377
3310697945
3310703255
3310709053
3310713936
3310720284
3310726509
3310733101
3310739937
3310744332
3310749031
3310754891
3310761788
3310766670
3310772347
3310778389
3310784737
3310791695
3310797798
3310803108
3310809456
3310816536
3310822762
3310829781
3310836311
3310842659
3310847786
3310855354
3310859688
3310867073
3310872200
3310878425
3310885994
3310891548
3310896553
3310902656
3310907722
3310912178
3310919014
3310923897
3310933296
3310941169
3310949714
3310953132
3310959602
3310963813
3310969123
3310974800
3310980354
3310985847
3310991706
3310997810
3311001838
3311008003
3311013557
3311018257
3311023689
3311028205
3311033699
3311040595
3311044990
3311051582
3311056465
3311061408
3311065620
3311072517
3311076423
3311083503
3311089118
3311093330
3311099555
3311105048
3311110358
3311113899
3311121101
3311128303
3311134101
3311137580
3311144233
3311149909
3311154304
3311159064
3311165534
3311171455
3311178046
3311183539
3311189155
3311194587
3311200141
3311207038
3311211371
3311217902
3311224799
3311229926
3311234748
3311240302
3311245368
3311250373
3311256049
3311262214
3311269233
3311275763
3311281195
3311286200
3311291632
3311294623
3311302314
3311307502
3311315680
3311319037
3311325934
3311331549
3311335822
3311343268
3311347968
3311353644
3311357306
3311365180
3311371527
3311377448
3311381842
3311387335
3311391486
3311396185
3311401190
3311408514
3311413825
3311419623
3311424628
3311429327
3311434576
3311438971
3311443060
3311448309
3311457953
3311465155
3311471319
3311474066
3311480902
3311484991
3311489752
3311496039
3311502020
3311507269
3311513312
3311520575
3311528082
3311534796
3311539801
3311544989
3311551947
3311556646
3311560553
3311567755
3311573126
3311577948
3311582525
3311588324
3311593023
3311598944
3311603949
3311608892
3311613714
3311618109
3311623480
3311629461
3311636663
3311640570
3311646795
3311651495
3311657781
3311662054
3311667303
3311672857
3311678716
3311685247
3311689825
3311695379
3311701177
3311704961
3311712713
3311719854
3311725469
3311731939
3311738287
3311744207
3311748601
3311755315
3311761602
3311766607
3311771612
3311777166
3311786504
3311790533
3311797735
3311802190
3311809392
3311814641
3311821172
3311825933
3311831121
3311839177
3311844365
3311849920
3311856511
3311863958
3311869512
3311872625
3311879827
3311884404
3311891668
3311896855
3311902959
3311907231
3311913762
3311921392
3311925969
3311930730
3311937932
3311942754
3311949285
3311956609
3311961247
3311966680
3311972417
3311978642
3311982976
3311988957
3311993840
3312001897
3312007329
3312012212
3312019231
3312024663
3312030095
3312034367
3312041997
3312047002
3312053776
3312059758
3312065861
3312071049
3312077092
3312081914
3312087834
3312095097
3312103825
3312111882
3312115971
3312123173
3312128727
3312133976
3312140202
3312145756
3312151555
3312156193
3312162053
3312167118
3312172306
3312178715
3312183781
3312188969
3312195561
3312201725
3312207890
3312214299
3312220402
3312226567
3312232548
3312239018
3312244511
3312250492
3312258000
3312264103
3312271427
3312276920
3312281437
3312288395
3312294254
3312301029
3312306706
3312312870
3312317997
3312323307
3312330509
3312334415
3312340702
3312347294
3312353153
3312359379
3312364139
3312370914
3312374821
3312380741
3312387089
3312392643
3312400272
3312405948
3312410709
3312418033
3312423710
3312429691
3312434452
3312440555
3312445499
3312454410
3312462162
3312468082
3312472843
3312478336
3312484195
3312489627
3312493839
3312501712
3312506534
3312512210
3312517093
3312521121
3312528507
3312533023
3312539005
3312545597
3312554263
3312560184
3312564700
3312570133
3312576724
3312581363
3312587650
3312593265
3312599002
3312604739
3312609439
3312615604
3312621036
3312627017
3312632816
3312638858
3312643802
3312651492
3312655093
3312662479
3312668399
3312674380
3312678775
3312685306
3312689517
3312696292
3312703128
3312716800
3312723880
3312729861
3312735721
3312742984
3312748721
3312753238
3312759402
3312762942
3312769351
3312773684
3312778811
3312785464
3312791079
3312795962
3312801394
3312806582
3312812136
3312816348
3312821475
3312826480
3312832949
3312838381
3312843508
3312848452
3312852603
3312859438
3312863894
3312869509
3312874270
3312879580
3312886904
3312892275
3312897158
3312902163
3312907107
3312912600
3312918276
3312925478
3312930666
3312936159
3312940981
3312948366
3312953554
3312958620
3312965334
3312971071
3312978152
3312985659
3312992312
3312999270
3313007265
3313013308
3313020510
3313028139
3313032412
3313038820
3313045229
3313053286
3313056887
3313065310
3313069704
3313075563
3313082766
3313088198
3313092409
3313097597
3313105348
3313110292
3313115663
3313120119
3313128115
3313133425
3313139589
3313144289
3313150392
3313156191
3313159914
3313166933
3313173036
3313179018
3313184999
3313190492
3313195497
3313201601
3313207887
3313212770
3313217470
3313224306
3313231996
3313235963
3313242860
3313247743
3313254457
3313258363
3313264467
3313269960
3313279115
3313284730
3313289369
3313296388
3313300538
3313307130
3313312929
3313319459
3313328370
3313336854
3313340883
