3658656405
3658661410
3658667208
3658671480
3658676485
3658681307
3658686556
3658691744
3658696200
3658702120
3658708040
3658712984
3658717684
3658723299
3658728792
3658734591
3658740450
3658747835
3658753389
3658758944
3658765413
3658771029
3658779451
3658787020
3658794100
3658802156
3658809053
3658814546
3658821321
3658828157
3658834993
3658841768
3658850496
3658857149
3658863985
3658871431
3658878572
3658883699
3658891084
3658900423
3658906831
3658914156
3658922578
3658928377
3658936739
3658944185
3658952119
3658958955
3658966035
3658972505
3658979402
3658986848
3658995759
3659003572
3659009370
3659018342
3659024690
3659033235
3659040010
3659047700
3659056733
3659062959
3659070588
3659076875
3659086946
3659093660
3659100862
3659109223
3659115937
3659123811
3659132966
3659140229
3659148591
3659155427
3659160859
3659172151
3659179109
3659187653
3659194123
3659204438
3659211213
3659217988
3659226044
3659232209
3659240144
3659248566
3659255402
3659264924
3659271149
3659279572
3659287751
3659294770
3659303254
3659311371
3659315095
3659325837
3659333161
3659341340
3659349274
3659355866
3659364350
3659370697
3659378266
3659386811
3659397431
3659410614
3659417877
3659427338
3659434723
3659438507
3659449921
3659456696
3659464203
3659471588
3659480682
3659486359
3659495392
3659502167
3659508637
3659517487
3659525726
3659532562
3659540863
3659546966
3659556427
3659565460
3659571808
3659581390
3659589325
3659596039
3659603424
3659610443
3659615997
3659622894
3659631439
3659640106
3659645782
3659654205
3659662933
3659670013
3659676239
3659684600
3659691497
3659699066
3659707489
3659714630
3659721588
3659728790
3659736236
3659743743
3659753021
3659759429
3659765838
3659780853
3659788299
3659795867
3659801421
3659812957
3659820403
3659829681
3659836150
3659844146
3659850066
3659860076
3659865996
3659874297
3659882476
3659890349
3659897307
3659904204
3659912993
3659920440
3659928740
3659935943
3659943206
3659951201
3659959136
3659967009
3659975005
3659981902
3659989775
3659997283
3660005889
3660012541
3660021025
3660027678
3660036284
3660044280
3660051299
3660058745
3660065703
3660073149
3660078093
3660086333
3660093108
3660100981
3660109282
3660116240
3660126189
3660133757
3660141753
3660151945
3660159514
3660165800
3660174345
3660180327
3660187224
3660195341
3660201628
3660207609
3660216276
3660223600
3660231718
3660238676
3660245024
3660251799
3660259977
3660267118
3660275541
3660282255
3660290312
3660298063
3660303556
3660311308
3660318388
3660325712
3660333463
3660340360
3660348112
3660355070
3660362760
3660369474
3660377714
3660386869
3660394132
3660400358
3660408598
3660414762
3660421659
3660430143
3660437467
3660446256
3660452360
3660461515
3660468412
3660475187
3660484403
3660491422
3660500028
3660509061
3660517057
3660524442
3660531583
3660539701
3660547025
3660556119
3660563688
3660572416
3660579923
3660586393
3660593900
3660602811
3660610135
3660615506
3660624051
3660631131
3660638822
3660645780
3660653714
3660660977
3660668485
3660676907
3660684232
3660692471
3660700772
3660707486
3660714566
3660721829
3660730313
3660738553
3660745633
3660753873
3660760342
3660768338
3660775784
3660782193
3660790494
3660796963
3660804349
3660813077
3660819424
3660826809
3660836331
3660845242
3660856839
3660864956
3660871670
3660879910
3660886257
3660894436
3660902310
3660908779
3660916836
3660924954
3660929959
3660938809
3660945400
3660953579
3660961758
3660969448
3660978603
3660984280
3660992580
3660998379
3661007351
3661016323
3661025417
3661033535
3661039944
3661047207
3661054958
3661062099
3661066799
3661076259
3661084072
3661091213
3661099209
3661108669
3661116359
3661124355
3661133693
3661142910
3661151760
3661161037
3661169704
3661179714
3661187831
3661197048
3661205532
3661213161
3661221401
3661227016
3661233974
3661240138
3661248195
3661253810
3661260463
3661267116
3661271999
3661278041
3661284999
3661290309
3661296291
3661302272
3661308131
3661313441
3661318385
3661324428
3661330897
3661337428
3661343410
3661348476
3661354701
3661360499
3661367518
3661372462
3661377345
3661383754
3661390407
3661395289
3661401759
3661407496
3661412684
3661419642
3661423854
3661430201
3661435328
3661442836
3661448512
3661454127
3661461268
3661466883
3661474269
3661480983
3661487391
3661493190
3661498988
3661505885
3661511622
3661516993
3661522608
3661528041
3661533595
3661540186
3661544459
3661551173
3661556971
3661561976
3661568446
3661574427
3661580592
3661584925
3661590357
3661596461
3661602808
3661608912
3661614222
3661620509
3661625880
3661631129
3661636439
3661641871
3661648707
3661653467
3661660609
3661666041
3661672388
3661677515
3661684046
3661689234
3661695460
3661701258
3661707422
3661712854
3661717066
3661724268
3661729578
3661736231
3661744043
3661750818
3661755640
3661761744
3661767603
3661777613
3661784876
3661791407
3661796533
3661802942
3661807581
3661813684
3661818384
3661824549
3661831934
3661837305
3661842737
3661849146
3661854334
3661859216
3661865625
3661871423
3661877527
3661883875
3661888330
3661895288
3661900293
3661907068
3661911340
3661918359
3661922815
3661929773
3661935205
3661941309
3661945947
3661952234
3661959863
3661964075
3661971460
3661975732
3661982019
3661987695
3661996789
3662003076
3662010278
3662017846
3662024194
3662031579
3662037317
3662042932
3662050134
3662054223
3662061181
3662066064
3662072717
3662077905
3662083337
3662089868
3662095300
3662100427
3662107080
3662112451
3662117272
3662124230
3662129174
3662134484
3662142175
3662147790
3662154077
3662159326
3662163476
3662170922
3662176476
3662181908
3662188439
3662193627
3662199548
3662204858
3662210229
3662215600
3662222008
3662229272
3662236108
3662241173
3662246606
3662252831
3662258202
3662264611
3662269860
3662275048
3662281762
3662287011
3662294823
3662299706
3662305871
3662311120
3662317345
3662322411
3662328698
3662334435
3662340050
3662345726
3662352745
3662358971
3662365136
3662370629
3662376793
3662381737
3662386925
3662393639
3662397911
3662404625
3662410912
3662415611
3662420983
3662427208
3662432335
3662438866
3662445091
3662450951
3662456261
3662462303
3662467613
3662473106
3662478478
3662484764
3662490013
3662496666
3662501732
3662508141
3662513023
3662518761
3662525047
3662531395
3662537498
3662542259
3662549095
3662556541
3662561302
3662571129
3662579063
3662585716
3662591148
3662597618
3662604820
3662610374
3662615867
3662622154
3662628257
3662633018
3662639488
3662646446
3662650718
3662657554
3662661644
3662668235
3662674644
3662680015
3662685569
3662692222
3662697471
3662702720
3662709922
3662714927
3662721275
3662726097
3662731468
3662737754
3662744407
3662749900
3662754844
3662760948
3662767356
3662771629
3662778404
3662782615
3662790427
3662795982
3662801475
3662804282
3662812827
3662817771
3662824546
3662829063
3662835837
3662842429
3662848228
3662853660
3662860007
3662865378
3662871665
3662878013
3662882224
3662889609
3662895163
3662900351
3662905417
3662912192
3662916770
3662923545
3662929892
3662936240
3662940207
3662946372
3662951377
3662957602
3662962485
3662968711
3662976950
3662982444
3662987815
3662993186
3663000083
3663004233
3663010886
3663016806
3663021750
3663028464
3663033469
3663038718
3663044821
3663049765
3663055991
3663061423
3663067526
3663073203
3663078818
3663084616
3663091086
3663096518
3663101645
3663110556
3663115378
3663122824
3663129172
3663135031
3663140585
3663146872
3663151877
3663158041
3663163534
3663169821
3663176169
3663180258
3663187643
3663192404
3663199179
3663204123
3663209433
3663216024
3663221090
3663227682
3663232565
3663238668
3663246847
3663252218
3663258017
3663263510
3663269247
3663275900
3663281210
3663288107
3663292196
3663298788
3663304586
3663309469
3663315573
3663321859
3663326376
3663332479
3663337484
3663343649
3663349996
3663354147
3663360494
3663366476
3663371786
3663378133
3663383688
3663390829
3663396505
3663401815
3663407919
3663414327
3663420492
3663425985
3663430135
3663437032
3663442770
3663448019
3663452108
3663459676
3663465291
3663471395
3663476339
3663480794
3663486410
3663492025
3663496358
3663502157
3663508504
3663513753
3663520162
3663525655
3663531820
3663537923
3663545491
3663551168
3663555013
3663561849
3663566732
3663571553
3663576863
3663583638
3663588399
3663594564
3663598958
3663605001
3663610616
3663615010
3663619893
3663625875
3663633565
3663638814
3663646504
3663652547
3663659383
3663669637
3663674886
3663680928
3663687337
3663694356
3663699605
3663705220
3663711201
3663716389
3663723408
3663728108
3663735676
3663740071
3663749043
3663755757
3663762837
3663768086
3663770955
3663779316
3663785359
3663790364
3663795796
3663802388
3663808186
3663814351
3663819355
3663825459
3663829609
3663835835
3663843098
3663848896
3663854206
3663860127
3663867390
3663872456
3663878559
3663883503
3663889607
3663896199
3663900593
3663907490
3663911701
3663919697
3663924824
3663933613
3663939045
3663945759
3663951740
3663956440
3663961994
3663968220
3663973347
3663979450
3663986042
3663990253
3663996235
3664001850
3664007648
3664013996
3664020832
3664026203
3664031147
3664037128
3664043232
3664048115
3664054096
3664060871
3664065021
3664072895
3664076801
3664083515
3664089741
3664094440
3664099628
3664105854
3664112446
3664117633
3664124103
3664128437
3664134845
3664142292
3664147968
3664153400
3664159442
3664164508
3664170063
3664175434
3664182758
3664190326
3664197833
3664207965
3664214923
3664219623
3664225788
3664232257
3664238361
3664241779
3664247516
3664253925
3664258807
3664264667
3664270831
3664277423
3664281451
3664287799
3664293231
3664297626
3664301349
3664309161
3664314960
3664320453
3664324847
3664330585
3664334857
3664340594
3664347796
3664351825
3664357928
3664363421
3664368426
3664374408
3664379413
3664385638
3664391742
3664398700
3664404315
3664410479
3664414569
3664420672
3664427081
3664433184
3664437945
3664443682
3664454364
3664459491
3664464801
3664471148
3664491229
3664495928
3664501727
3664507525
3664512652
3664518328
3664523760
3664528765
3664534075
3664540057
3664545245
3664550799
3664556719
3664562151
3664567767
3664574603
3664580035
3664584673
3664589617
3664595843
3664602373
3664606951
3664615862
3664620989
3664626665
3664632036
3664638811
3664643755
3664650042
3664655718
3664662249
3664668657
3664674395
3664680742
3664686724
3664693926
3664699724
3664704912
3664710466
3664716204
3664721819
3664726702
3664732195
3664738359
3664742571
3664748735
3664754961
3664759600
3664765032
3664770891
3664777910
3664783464
3664788652
3664794268
3664799333
3664804582
3664810808
3664816301
3664821977
3664826250
3664831865
3664838091
3664842058
3664849748
3664855058
3664863725
3664869951
3664874956
3664880937
3664887529
3664892656
3664898943
3664905901
3664911638
3664917131
3664921281
3664928361
3664934282
3664940690
3664946855
3664952165
3664956865
3664963579
3664967973
3664974565
3664979631
3664986833
3664992387
3664998552
3665003618
3665009843
3665015641
3665021318
3665026933
3665031083
3665038163
3665042558
3665050370
3665055314
3665062089
3665064897
3665073503
3665078263
3665085038
3665089982
3665097001
3665101884
3665108109
3665113603
3665119706
3665125627
3665131242
3665136674
3665142350
3665148087
3665154008
3665162003
3665166703
3665173417
3665178971
3665183915
3665190385
3665195390
3665203019
3665209489
3665216996
3665223466
3665229569
3665235673
3665242448
3665246903
3665253739
3665259110
3665265275
3665269486
3665275651
3665281205
3665287430
3665292252
3665298844
3665305069
3665310624
3665315934
3665322770
3665328080
3665333695
3665340287
3665344620
3665352005
3665358963
3665365250
3665370621
3665377884
3665383621
3665389176
3665394669
3665401383
3665406143
3665412796
3665417618
3665424271
3665430496
3665436112
3665440262
3665447098
3665452652
3665457962
3665464310
3665469986
3665474136
3665481522
3665486588
3665493729
3665499344
3665504532
3665509903
3665516678
3665522781
3665529068
3665534317
3665540359
3665546158
3665551468
3665558487
3665562881
3665568985
3665573440
3665578384
3665584244
3665589065
3665593765
3665601516
3665606155
3665611831
3665617263
3665622512
3665626846
3665632766
3665640030
3665645645
3665652114
3665657913
3665662918
3665670730
3665675796
3665683059
3665689163
3665695266
3665699722
3665705764
3665711135
3665716995
3665723953
3665728225
3665735122
3665741470
3665748000
3665752029
3665759109
3665765151
3665773147
3665779433
3665784316
3665790237
3665796828
3665802505
3665807387
3665812942
3665819594
3665824843
3665831191
3665837905
3665841994
3665850051
3665855544
3665860976
3665867202
3665873977
3665879775
3665884536
3665891189
3665897475
3665903396
3665907546
3665912856
3665918959
3665925124
3665930678
3665936110
3665942641
3665947890
3665953749
3665959120
3665964369
3665971022
3665975905
3665982741
3665987807
3665993971
3665999220
3666005873
3666010634
3666016799
3666028639
3666034071
3666038405
3666045973
3666050917
3666056105
3666063673
3666070021
3666075514
3666080397
3666086012
3666092177
3666098280
3666102492
3666108839
3666114638
3666121352
3666126784
3666132094
3666137465
3666143995
3666149306
3666155775
3666160475
3666167494
3666174696
3666180189
3666185621
3666190992
3666197767
3666202894
3666209242
3666214613
3666220961
3666225966
3666232130
3666238539
3666242567
3666248854
3666255567
3666260939
3666266920
3666272352
3666277662
3666286329
3666293592
3666298353
3666305799
3666311659
3666317457
3666323805
3666330152
3666334974
3666341505
3666348707
3666354322
3666359754
3666364027
3666370985
3666376966
3666382215
3666386427
3666394361
3666399488
3666405347
3666411817
3666418043
3666423536
3666429700
3666434644
3666440748
3666446363
3666450696
3666457288
3666462964
3666469312
3666473523
3666479871
3666484205
3666492444
3666497510
3666504224
3666508191
3666514966
3666519544
3666526197
3666531079
3666537793
3666543409
3666551343
3666558606
3666564038
3666569593
3666576551
3666583386
3666588635
3666594983
3666600598
3666605664
3666611463
3666617810
3666622876
3666629041
3666635754
3666641248
3666646436
3666652417
3666659131
3666663586
3666670239
3666674878
3666681592
3666687207
3666692090
3666697766
3666704053
3666710156
3666715588
3666721509
3666727063
3666733655
3666739575
3666744885
3666749463
3666755749
3666762097
3666767956
3666772961
3666778576
3666783764
3666788891
3666793957
3666799206
3666805493
3666811596
3666816479
3666823742
3666829602
3666837353
3666848034
3666855603
3666860852
3666866101
3666872265
3666877941
3666882519
3666888012
3666894665
3666899731
3666904247
3666909313
3666914013
3666919445
3666925671
3666932079
3666936962
3666941540
3666945080
3666952160
3666956982
3666963146
3666968700
3666974194
3666979076
3666984081
3666989635
3666995678
3667001720
3667006786
3667012890
3667017040
3667023144
3667028820
3667033459
3667040050
3667045971
3667050976
3667056774
3667062328
3667067394
3667072216
3667077343
3667083751
3667090343
3667097667
3667103344
3667110729
3667116039
3667122814
3667129711
3667135143
3667140087
3667146984
3667151073
3667157054
3667163585
3667168834
3667174694
3667179698
3667185436
3667191173
3667197521
3667201671
3667209606
3667214794
3667221263
3667225719
3667232616
3667237560
3667243541
3667250194
3667255748
3667260936
3667267406
3667271983
3667277415
3667283397
3667289622
3667301097
3667306346
3667311595
3667317210
3667323680
3667328441
3667338695
3667344615
3667350291
3667356395
3667362132
3667368663
3667374644
3667380565
3667385447
3667392039
3667397349
3667403209
3667409373
3667414988
3667420726
3667426280
3667431651
3667436534
3667442332
3667447459
3667453807
3667460032
3667465586
3667470042
3667475230
3667481028
3667487315
3667491160
3667497874
3667502207
3667509959
3667514414
3667521128
3667525889
3667532786
3667537608
3667544322
3667549693
3667555796
3667560618
3667570261
3667575571
3667581614
3667587534
3667593333
3667598521
3667604380
3667611033
3667617380
3667622751
3667628184
3667635142
3667641672
3667646616
3667652109
3667658396
3667663828
3667669993
3667676462
3667680613
3667687937
3667692942
3667698374
3667704599
3667710032
3667716196
3667721506
3667726328
3667733164
3667738169
3667744883
3667750620
3667755503
3667762033
3667768503
3667772531
3667780161
3667785654
3667791757
3667797373
3667802133
3667810617
3667815805
3667821176
3667827829
3667833383
3667838937
3667844431
3667851328
3667857553
3667862741
3667869028
3667873911
3667880868
3667885812
3667892221
3667902597
3667909982
3667915903
3667921152
3667925485
3667932931
3667938424
3667943796
3667950021
3667955392
3667960946
3667967599
3667971261
3667978341
3667983957
3667990182
3667994882
3668001535
3668006540
3668012704
3668017526
3668023873
3668030648
3668036264
3668041574
3668047616
3668053048
3668059274
3668064523
3668070504
3668077462
3668081735
3668088326
3668093698
3668100106
3668105233
3668111459
3668117013
3668123116
3668127389
3668133675
3668140328
3668145821
3668152108
3668157723
3668168710
3668174996
3668179879
3668186715
3668191842
3668198067
3668203622
3668209725
3668215523
3668219674
3668227303
3668232125
3668238717
3668243294
3668249154
3668256112
3668261422
3668266427
3668272835
3668277962
3668282967
3668289864
3668295357
3668301278
3668307564
3668312203
3668318367
3668326302
3668332405
3668337838
3668341866
3668349312
3668353890
3668360298
3668365303
3668372505
3668377327
3668383248
3668387947
3668395333
3668400398
3668404610
3668412666
3668421211
3668427010
3668434212
3668438423
3668446724
3668451118
3668456856
3668463509
3668468697
3668473335
3668478523
3668484749
3668490486
3668496345
3668502998
3668507027
3668514412
3668519661
3668524422
3668531380
3668536873
3668542549
3668548836
3668554329
3668560127
3668564827
3668573921
3668579902
3668585395
3668589668
3668595222
3668601997
3668607856
3668623298
3668630683
3668635322
3668641975
3668648078
3668653633
3668659675
3668666633
3668671150
3668678291
3668682929
3668688728
3668694099
3668698493
3668704048
3668711128
3668717353
3668723518
3668727546
3668732246
3668738471
3668745307
3668750800
3668757087
3668762336
3668767890
3668774177
3668779670
3668785834
3668792426
3668798469
3668804511
3668812263
3668818915
3668824409
3668830451
3668835456
3668841559
3668847053
3668852912
3668859260
3668864692
3668870429
3668874640
3668881415
3668887519
3668894294
3668901984
3668909003
3668914496
3668920905
3668926764
3668932379
3668937323
3668942633
3668948004
3668954535
3668960089
3668966010
3668971381
3668978461
3668984503
3668990363
3668996649
3669004462
3669008612
3669016119
3669021185
3669026495
3669032477
3669038458
3669044379
3669050299
3669055426
3669060919
3669069525
3669076361
3669082404
3669087530
3669092840
3669099127
3669105170
3669111151
3669116339
3669122565
3669128363
3669135687
3669141424
3669147040
3669152105
3669158148
3669163519
3669169378
3669176764
3669182257
3669187384
3669192999
3669198309
3669203741
3669208685
3669216253
3669220770
3669225409
3669232061
3669239630
3669245794
3669252691
3669258856
3669264959
3669269964
3669275884
3669282354
3669288580
3669292486
3669299627
3669304571
3669310735
3669317205
3669322515
3669327947
3669333440
3669339849
3669344305
3669351019
3669359319
3669364996
3669371587
3669377752
3669384038
3669391241
3669395696
3669401433
3669407354
3669413579
3669420049
3669424749
3669431280
3669438604
3669443670
3669448614
3669455938
3669461309
3669466680
3669474004
3669479619
3669485418
3669492009
3669496587
3669503301
3669509221
3669513555
3669521184
3669527471
3669532537
3669540044
3669544438
3669551274
3669557805
3669563237
3669570073
3669575810
3669580144
3669585637
3669591496
3669599187
3669604802
3669609990
3669616521
3669623052
3669630681
3669636845
3669644719
3669652348
3669659734
3669665898
3669671330
3669676030
3669684148
3669689091
3669695134
3669701848
3669707890
3669714177
3669720341
3669726201
3669731694
3669737919
3669744084
3669749028
3669755925
3669764775
3669769719
3669775883
3669781804
3669787419
3669793217
3669799870
3669804509
3669811406
3669818364
3669823124
3669828923
3669835942
3669840946
3669847294
3669852909
3669860173
3669865422
3669872746
3669877567
3669883366
3669889897
3669896671
3669901249
3669907414
3669913700
3669919499
3669925724
3669931156
3669936283
3669942936
3669949039
3669954044
3669960209
3669966373
3669971439
3669977909
3669981876
3669988102
3669994877
3670000553
3670007267
3670012882
3670018192
3670023868
3670029300
3670035343
3670040592
3670045170
3670051883
3670058048
3670063053
3670069767
3670074711
3670080814
3670085819
3670092594
3670099369
3670106327
3670110660
3670116703
3670123477
3670128788
3670135074
3670140872
3670146671
3670154605
3670159915
3670166385
3670171085
3670177310
3670183963
3670190311
3670195621
3670199832
3670210758
3670216190
3670222904
3670228946
3670233951
3670238895
3670245120
3670251651
3670255984
3670261600
3670267764
3670273746
3670279971
3670285342
3670291324
3670296817
3670303287
3670308597
3670315860
3670322024
3670326907
3670333072
3670337954
3670344302
3670349856
3670356021
3670361758
3670367617
3670372989
3670380862
3670388186
3670394656
3670401065
3670407534
3670417666
3670424319
3670431338
3670438235
3670444216
3670450625
3670455874
3670462039
3670468020
3670473635
3670479128
3670485171
3670489382
3670497744
3670503420
3670508791
3670514590
3670520937
3670527041
3670533938
3670539736
3670546023
3670551028
3670557253
3670561648
3670567873
3670574282
3670580019
3670585879
3670591738
3670597048
3670603335
3670608828
3670614199
3670619387
3670625551
3670632693
3670637880
3670644167
3670649111
3670655336
3670659792
3670666079
3670672792
3670678652
3670684572
3670690676
3670695925
3670701418
3670707888
3670714479
3670721254
3670726870
3670731630
3670736818
3670743410
3670747743
3670754518
3670759279
3670766786
3670771059
3670777223
3670781984
3670788210
3670793947
3670799379
3670806825
3670812685
3670817323
3670822878
3670828859
3670833009
3670840089
3670847536
3670852846
3670859804
3670864931
3670870363
3670875917
3670882509
3670888246
3670893251
3670899293
3670905458
3670910158
3670916383
3670922182
3670927858
3670933961
3670939515
3670946107
3670952272
3670957338
3670962159
3670969606
3670974672
3670982606
3670988404
3670995546
3670999940
3671006166
3671012880
3671017152
3671024903
3671030397
3671035829
3671042359
3671047731
3671053163
3671058473
3671063722
3671070374
3671074647
3671081544
3671086610
3671093507
3671098878
3671105103
3671114198
3671119752
3671126038
3671130311
3671137391
3671142274
3671148865
3671154359
3671159669
3671165650
3671170106
3671176026
3671180604
3671186219
3671192017
3671196900
3671202759
3671209168
3671214234
3671220399
3671224976
3671231507
3671237793
3671244080
3671251160
3671256043
3671263733
3671268311
3671274537
3671280640
3671287903
3671293396
3671298401
3671304871
3671310852
3671315552
3671320984
3671327393
3671333252
3671339051
3671344239
3671348267
3671356018
3671362122
3671368347
3671374024
3671379456
3671385986
3671390930
3671396668
3671404053
3671410217
3671414612
3671420715
3671425964
3671432007
3671438232
3671442383
3671450439
3671455200
3671461609
3671466247
3671472229
3671477966
3671482117
3671490478
3671495361
3671502685
3671508911
3671514892
3671521484
3671526916
3671534179
3671539001
3671544800
3671551086
3671557251
3671561645
3671567077
3671573242
3671579589
3671588195
3671593444
3671598449
3671605529
3671610229
3671616149
3671621643
3671627624
3671635009
3671640136
3671645446
3671651123
3671657897
3671662292
3671669250
3671675598
3671682067
3671686462
3671692748
3671698364
3671704589
3671709411
3671715514
3671720824
3671727050
3671733215
3671739379
3671745055
3671749511
3671757201
3671763000
3671768371
3671774535
3671781127
3671786864
3671792785
3671801147
3671810485
3671818175
3671824218
3671831054
3671837157
3671845702
3671854064
3671860228
3671864623
3671871215
3671878112
3671883910
3671888732
3671895812
3671901915
3671907592
3671914244
3671920165
3671926207
3671929808
3671936644
3671941649
3671948546
3671959227
3671965331
3671970397
3671978148
3671983641
3671990294
3671996581
3672001891
3672008177
3672013060
3672018370
3672025572
3672030150
3672038451
3672045836
3672051573
3672057494
3672065367
3672069640
3672073973
3672078978
3672082335
3672090330
3672095579
3672101439
3672107298
3672111387
3672116759
3672123839
3672130430
3672135740
3672141722
3672147398
3672152586
3672159849
3672165709
3672171385
3672177122
3672182982
3672188841
3672193724
3672200438
3672206114
3672210691
3672216062
3672222288
3672226927
3672233396
3672240354
3672244078
3672250486
3672256529
3672261595
3672268247
3672273313
3672282469
3672287962
3672291929
3672298704
3672303648
3672311826
3672317259
3672322141
3672329404
3672333799
3672338438
3672345579
3672350339
3672355222
3672361387
3672367246
3672372739
3672379026
3672384641
3672390439
3672396238
3672401853
3672407163
3672412351
3672418027
3672424497
3672429746
3672435422
3672440915
3672446836
3672452695
3672458371
3672464475
3672470334
3672475339
3672481321
3672484922
3672492795
3672500669
3672505918
3672512571
3672521543
3672526486
3672532346
3672538144
3672543332
3672550778
3672556272
3672560788
3672568295
3672573117
3672578855
3672584775
3672590329
3672595700
3672600705
3672608151
3672614133
3672618955
3672626889
3672632993
3672637265
3672643613
3672650632
3672655698
3672661862
3672666074
3672671200
3672679135
3672686276
3672691403
3672695981
3672702328
3672708676
3672714108
3672719845
3672726742
3672732297
3672738217
3672741940
3672748532
3672754757
3672761532
3672767697
3672774533
3672780880
3672787350
3672792965
3672798092
3672805294
3672809811
3672816952
3672820919
3672826351
3672833737
3672838253
3672843624
3672851193
3672856259
3672861813
3672867733
3672874203
3672881222
3672885494
3672893307
3672899410
3672904598
3672910152
3672917660
3672923519
3672928097
3672934078
3672941097
3672946651
3672953182
3672957760
3672963314
3672969540
3672976131
3672981991
3672988766
3672995968
3673002193
3673008480
3673012569
3673018856
3673023922
3673028988
3673035091
3673040889
3673047115
3673051204
3673058529
3673065059
3673068782
3673075191
3673080806
3673086116
3673093807
3673100032
3673104976
3673111202
3673115901
3673121517
3673126216
3673133480
3673139705
3673145015
3673150508
3673156795
3673162166
3673168147
3673171871
3673178768
3673184810
3673190242
3673197749
3673204158
3673215389
3673221431
3673226863
3673232722
3673239497
3673245540
3673252193
3673255855
3673261836
3673267390
3673272517
3673279231
3673284541
3673289973
3673296565
3673302608
3673307796
3673313594
3673319148
3673324946
3673330440
3673335933
3673343989
3673350459
3673354670
3673360652
3673366511
3673372187
3673378657
3673382502
3673388911
3673394709
3673400080
3673406428
3673411860
3673417292
3673422908
3673429804
3673437434
3673446467
3673452265
3673458308
3673465144
3673471430
3673476924
3673482600
3673487788
3673492671
3673498530
3673505610
3673511408
3673518000
3673523676
3673528071
3673533503
3673541376
3673547297
3673552058
3673558405
3673564448
3673570063
3673576044
3673580439
3673587458
3673593256
3673598505
3673603937
3673609125
3673614313
3673620051
3673624933
3673632197
3673637262
3673643244
3673649164
3673654596
3673659784
3673666010
3673671320
3673678034
3673684565
3673691462
3673698542
3673703913
3673709406
3673714838
3673720514
3673725214
3673731867
3673736994
3673743524
3673748041
3673753473
3673757868
3673764520
3673770502
3673776239
3673782343
3673790216
3673794611
3673801996
3673808771
3673813715
3673819391
3673823846
3673829156
3673838251
3673843744
3673848871
3673853937
3673860101
3673865961
3673871271
3673877130
3673882379
3673887750
3673893548
3673897760
3673904718
3673911981
3673918573
3673923822
3673930902
3673937005
3673942376
3673946405
3673954278
3673960077
3673965753
3673971917
3673976556
3673983697
3673989618
3673995721
3674000909
3674006707
3674011895
3674017205
3674025079
3674029962
3674036431
3674042413
3674047662
3674052484
3674057549
3674063409
3674068475
3674073602
3674080499
3674085381
3674090752
3674096490
3674102959
3674107720
3674113763
3674119134
3674124078
3674128106
3674135003
3674141289
3674146600
3674153558
3674159417
3674165215
3674169732
3674176263
3674182244
3674187798
3674193047
3674198907
3674202874
3674209282
3674216057
3674221551
3674226128
3674231560
3674237175
3674243157
3674249321
3674255181
3674261406
3674265923
3674270989
3674276116
3674283928
3674290764
3674295952
3674301750
3674307366
3674312676
3674317803
3674323601
3674331230
3674336174
3674341545
3674347771
3674353020
3674358696
3674365105
3674372063
3674378960
3674385368
3674391655
3674396843
3674403191
3674409782
3674415398
3674421135
3674426201
3674432365
3674439506
3674444450
3674450615
3674457268
3674464226
3674470085
3674475395
3674481926
3674487297
3674492729
3674499260
3674504753
3674509697
3674517204
3674521782
3674528129
3674533134
3674539116
3674546135
3674551567
3674556999
3674563041
3674569389
3674574455
3674580864
3674586662
3674592277
3674598136
3674604423
3674609611
3674615104
3674622001
3674626701
3674634147
3674640373
3674646964
3674651908
3674657768
3674664115
3674669547
3674675346
3674681205
3674687370
3674692069
3674698600
3674703056
3674709831
3674715751
3674722038
3674727409
3674733451
3674739677
3674744865
3674750785
3674756705
3674762321
3674768668
3674773429
3674779655
3674785331
3674791068
3674797294
3674802237
3674808158
3674814383
3674820975
3674825370
3674833365
3674838126
3674844474
3674851371
3674858939
3674867789
3674873282
3674879813
3674885855
3674892142
3674896353
3674903556
3674908438
3674915396
3674920828
3674926139
3674932791
3674940055
3674944388
3674950369
3674957205
3674962332
3674968375
3674973197
3674979483
3674986441
3674991812
3674997916
3675003348
3675007132
3675014578
3675020743
3675026602
3675032278
3675037772
3675044424
3675050406
3675056692
3675062369
3675068045
3675074087
3675080496
3675086783
3675092337
3675098379
3675103201
3675111319
3675116507
3675123648
3675129507
3675135489
3675140554
3675145559
3675151480
3675156240
3675164114
3675170095
3675176504
3675181814
3675188101
3675194265
3675200735
3675205740
3675212210
3675217520
3675223440
3675228811
3675235464
3675242239
3675246206
3675251943
3675258413
3675263967
3675270010
3675275259
3675281118
3675287527
3675293264
3675298940
3675304800
3675310354
3675317739
3675323782
3675329763
3675337637
3675344106
3675350149
3675357107
3675362722
3675369985
3675374929
3675382070
3675387807
3675392568
3675399282
3675403615
3675410207
3675414419
3675420644
3675426381
3675432241
3675438161
3675443959
3675450063
3675455739
3675460317
3675467031
3675474416
3675480153
3675485829
3675491628
3675495839
3675501943
3675508473
3675513356
3675520192
3675526479
3675530385
3675536000
3675542409
3675547231
3675553884
3675560597
3675565297
3675571095
3675576833
3675584035
3675589101
3675594838
3675600392
3675606557
3675613210
3675618947
3675623708
3675628651
3675634755
3675639088
3675645802
3675651967
3675656117
3675662892
3675667531
3675672780
3675679188
3675686146
3675691395
3675697804
3675703785
3675710194
3675715870
3675720570
3675727589
3675732167
3675737965
3675743153
3675748707
3675754994
3675760304
3675764882
3675771107
3675776783
3675781788
3675788563
3675796681
3675801625
3675808461
3675816395
3675820790
3675827320
3675833119
3675839039
3675844166
3675850514
3675857411
3675862843
3675868275
3675874683
3675879994
3675885059
3675891773
3675896351
3675902943
3675908497
3675914906
3675919727
3675925831
3675930469
3675936878
3675942249
3675948536
3675954151
3675961109
3675966968
3675972950
3675978382
3675983692
3675990284
3675994800
3676001392
3676006702
3676013050
3676018055
3676022510
3676028370
3676033802
3676039295
3676043262
3676051380
3676056934
3676061817
3676072681
3676077564
3676082264
3676089099
3676094226
3676099414
3676104969
3676109485
3676113941
3676119800
3676125171
3676131885
3676137805
3676141651
3676147998
3676153064
3676158496
3676163623
3676170398
3676175159
3676181323
3676185962
3676192188
3676196033
3676202197
3676210254
3676214282
3676220508
3676226428
3676233081
3676238757
3676244739
3676251941
3676257251
3676263415
3676268603
3676274463
3676279101
3676284656
3676290332
3676294177
3676301318
3676311450
3676318591
3676323718
3676333667
3676339892
3676345385
3676350268
3676356738
3676362048
3676368212
3676374255
3676379565
3676385913
3676389758
3676396594
3676401416
3676407824
3676414233
3676417956
3676424914
3676429675
3676434435
3676440783
3676446520
3676452380
3676457873
3676463854
3676467944
3676473925
3676478869
3676484362
3676491381
3676496630
3676501269
3676506762
3676512316
3676516955
3676524950
3676531237
3676538317
3676543566
3676548266
3676552599
3676560351
3676565356
3676571703
3676576891
3676583117
3676587816
3676594225
3676600084
3676604479
3676609972
3676616320
3676620958
3676627367
3676632738
3676638903
3676644213
3676650133
3676656115
3676660265
3676667650
3676672899
3676679857
3676684740
3676690477
3676697435
3676701464
3676708055
3676713610
3676720201
3676725878
3676731920
3676735704
3676741808
3676748155
3676752184
3676761888
3676767198
3676773302
3676778551
3676782823
3676790086
3676796007
3676802599
3676808458
3676814439
3676821275
3676826952
3676833726
3676838914
3676845018
3676851488
3676856431
3676862535
3676867723
3676873948
3676879014
3676885423
3676891405
3676895677
3676902208
3676907823
3676913194
3676919786
3676925035
3676931321
3676936754
3676941636
3676948350
3676953233
3676961351
3676967881
3676975572
3676983995
3676991868
3677000291
3677005967
3677012559
3677017076
3677023728
3677029283
3677035813
3677041978
3677048081
3677053513
3677057786
3677064195
3677070725
3677078111
3677083238
3677088548
3677094712
3677101121
3677107102
3677112534
3677119065
3677126572
3677132066
3677137742
3677143113
3677149155
3677154526
3677160508
3677166001
3677172166
3677177415
3677183091
3677188462
3677194260
3677199509
3677205796
3677212021
3677216843
3677223191
3677227829
3677234116
3677238816
3677246506
3677252549
3677258225
3677263779
3677269822
3677276718
3677282334
3677287827
3677292404
3677299729
3677305710
3677311753
3677316513
3677321396
3677325852
3677330124
3677336106
3677341538
3677350144
3677354843
3677359543
3677364914
3677370224
3677374802
3677377853
3677384201
3677387192
3677392319
3677396713
3677400925
3677405807
3677409286
3677413925
3677417465
3677421921
3677425522
3677431137
3677435837
3677440781
3677443954
3677448959
3677453842
3677457809
3677460800
3677467392
3677471725
3677475570
3677479294
3677484237
3677487900
3677493393
3677497177
3677502853
3677507187
3677512191
3677516098
3677521164
3677525192
3677530075
3677534042
3677538925
3677543930
3677547287
3677553451
3677556991
3677562240
3677567001
3677573959
3677577682
3677583053
3677586837
3677592208
3677596176
3677600021
3677605331
3677610275
3677615524
3677618881
3677623641
3677627975
3677632247
3677635421
3677642379
3677646896
3677650985
3677655746
3677660018
3677662399
3677669296
3677671615
3677679366
3677683761
3677688583
3677692367
3677697677
3677702010
3677707870
3677712508
3677717757
3677721847
3677725448
3677730880
3677735824
3677739974
3677745345
3677749618
3677754195
3677759139
3677763167
3677768050
3677771834
3677775680
3677781417
3677787948
3677792586
3677798507
3677803328
3677808516
3677813155
3677817611
3677822005
3677827010
3677832320
3677835799
3677842635
3677846785
3677852950
3677856795
3677862471
3677866317
3677870955
3677874861
3677879683
3677885115
3677888350
3677894271
3677899336
3677903609
3677908370
3677912642
3677916793
3677921736
3677926192
3677932906
3677936629
3677943038
3677947249
3677952132
3677956648
3677961165
3677964888
3677972029
3677978194
3677983138
3677985884
3677992476
3677996199
3678001875
3678005537
3678014571
3678018294
3678024580
3678029036
3678034590
3678039778
3678044295
3678049605
3678054365
3678059492
3678064131
3678068342
3678074507
3678079024
3678083784
3678088362
3678094954
3678099043
3678104353
3678109846
3678115278
3678120100
3678125471
3678131269
3678136641
3678141279
3678146467
3678152510
3678157637
3678162214
3678167463
3678171736
3678178022
3678183515
3678188459
3678195051
3678200483
3678204511
3678208845
3678215925
3678221845
3678227888
3678233015
3678238081
3678243940
3678250776
3678255537
3678262495
3678269270
3678274397
3678281782
3678287946
3678297102
3678303693
3678310773
3678315168
3678322004
3678325788
3678330366
3678336530
3678341718
3678346418
3678352643
3678357343
3678366071
3678370527
3678375959
3678381147
3678385480
3678391706
3678399152
3678405011
3678411420
3678415693
3678420942
3678428327
3678434613
3678439435
3678447370
3678451703
3678459211
3678465497
3678471601
3678476239
3678481305
3678488690
3678493451
3678499738
3678505231
3678509259
3678517377
3678522687
3678528302
3678532636
3678539838
3678545453
3678551434
3678556012
3678561566
3678567181
3678572614
3678577313
3678583295
3678589032
3678596478
3678601666
3678608258
3678613629
3678618329
3678623883
3678626874
3678636151
3678641888
3678646039
3678652264
3678657635
3678663006
3678668377
3678673688
3678679791
3678685101
3678690655
3678695721
3678703290
3678707867
3678714337
3678718548
3678725872
3678732586
3678736920
3678743695
3678748883
3678754803
3678761029
3678765911
3678770672
3678777996
3678783245
3678788739
3678795635
3678800030
3678806011
3678811383
3678815960
3678822796
3678827068
3678832623
3678838909
3678843243
3678849651
3678854595
3678859844
3678864300
3678873272
3678879742
3678887432
3678893047
3678898296
3678904156
3678910686
3678915691
3678923016
3678928387
3678933391
3678940105
3678945293
3678951397
3678956402
3678964519
3678971416
3678976177
3678981243
3678987407
3678992412
3678997539
3679003399
3679006267
3679013836
3679020427
3679024517
3679028972
3679035442
3679039775
3679046550
3679052410
3679057903
3679064434
3679069072
3679075664
3679080120
3679086467
3679090007
3679096965
3679102275
3679107158
3679111614
3679116680
3679122661
3679128093
3679131145
3679137981
3679144817
3679152446
3679157390
3679163310
3679167949
3679174541
3679180217
3679188213
3679192546
3679198650
3679205241
3679210429
3679215800
3679222209
3679226848
3679232951
3679238139
3679242839
3679250102
3679253703
3679260173
3679265422
3679270366
3679275676
3679281535
3679286296
3679292338
3679298991
3679309245
3679314860
3679321086
3679325663
3679331767
3679338359
3679342875
3679349040
3679354899
3679363749
3679369426
3679376689
3679382609
3679390055
3679397013
3679401713
3679407878
3679413981
3679421488
3679427043
3679432292
3679436625
3679443705
3679448283
3679454386
3679459513
3679468607
3679474406
3679480692
3679487162
3679495097
3679501139
3679505900
3679511454
3679517313
3679522074
3679527689
3679534220
3679540018
3679545511
3679550944
3679556254
3679561564
3679566996
3679572794
3679580607
3679584940
3679590983
3679595743
3679602213
3679620890
3679627115
3679630411
3679636332
3679642313
3679648783
3679654154
3679658548
3679663797
3679671122
3679676615
3679683329
3679686808
3679693704
3679697977
3679703348
3679708597
3679717142
3679720865
3679728250
3679731546
3679738748
3679742471
3679748575
3679752908
3679761758
3679769815
3679775858
3679778848
3679786172
3679790567
3679797281
3679803201
3679807596
3679814249
3679818216
3679824197
3679830667
3679836648
3679842081
3679846719
3679853677
3679857950
3679864725
3679871377
3679877908
3679883279
3679891397
3679896585
3679901773
3679909524
3679915139
3679920388
3679925698
3679931924
3679938272
3679944192
3679949197
3679956033
3679962991
3679968972
3679975198
3679979226
3679986184
3679991433
3679997170
3680002969
3680010049
3680015420
3680020852
3680025186
3680032449
3680037332
3680042825
3680048196
3680055093
3680061623
3680070046
3680074868
3680082375
3680087136
3680093118
3680097817
3680104409
3680108681
3680114846
3680119668
3680125039
3680130227
3680135659
3680143227
3680148781
3680153847
3680159340
3680164651
3680170144
3680174355
3680181252
3680185769
3680193276
3680196755
3680203408
3680207741
3680213295
3680219826
3680224465
3680229470
3680236794
3680242104
3680248207
3680253212
3680257790
3680263283
3680269203
3680274636
3680279213
3680285683
3680293068
3680298561
3680302956
3680309242
3680313881
3680318031
3680324562
3680331276
3680338478
3680344277
3680349709
3680356239
3680362160
3680367470
3680374672
3680380226
3680386391
3680391579
3680397255
3680402687
3680408363
3680413673
3680417274
3680423561
3680429176
3680435768
3680440285
3680446876
3680451515
3680456459
3680461159
3680466896
3680472816
3680479347
3680484718
3680490516
3680496071
3680501808
3680504921
3680511818
3680517677
3680523780
3680529029
3680534095
3680540626
3680545082
3680551612
3680556068
3680561073
3680565834
3680573768
3680580055
3680585121
3680589820
3680597145
3680601905
3680607337
3680610206
3680618873
3680623756
3680629615
3680636085
3680641761
3680647559
3680653175
3680658790
3680668983
3680675697
3680681129
3680687049
3680693092
3680696326
3680705543
3680710242
3680715797
3680721229
3680727882
3680732276
3680740943
3680745276
3680750831
3680755713
3680764503
3680769385
3680775184
3680779456
3680785560
3680789771
3680796302
3680800879
3680805762
3680812110
3680818213
3680826758
3680833289
3680837989
3680845252
3680848853
3680855201
3680859290
3680867224
3680872168
3680877661
3680882117
3680887610
3680893530
3680898596
3680905249
3680910742
3680916419
3680923255
3680928687
3680933142
3680939185
3680944495
3680954871
3680960303
3680965430
3680971533
3680974524
3680981726
3680986243
3680993140
3680998816
3681002661
3681009314
3681014197
3681019202
3681023474
3681030371
3681035376
3681044104
3681048742
3681055945
3681059912
3681065588
3681069922
3681076269
3681081091
3681090368
3681094885
3681099524
3681106176
3681110998
3681116064
3681120520
3681127356
3681131689
3681139990
3681145300
3681151037
3681154150
3681161230
3681167150
3681171179
3681175695
3681182958
3681187475
3681194921
3681199621
3681205602
3681210912
3681216100
3681221166
3681226110
3681237035
3681243017
3681250341
3681256628
3681261633
3681267004
3681271947
3681276891
3681282201
3681287878
3681293615
3681297887
3681303686
3681309301
3681313879
3681319799
3681326452
3681331212
3681337560
3681341649
3681348241
3681353429
3681359228
3681363683
3681370763
3681376623
3681381933
3681386266
3681392186
3681398290
3681402257
3681406591
3681414464
3681419042
3681426122
3681430394
3681435704
3681442357
3681446691
3681453038
3681456456
3681463475
3681469152
3681475438
3681480138
3681485997
3681491857
3681495824
3681500463
3681507604
3681512181
3681519261
3681524205
3681530126
3681537389
3681542210
3681548802
3681553990
3681559056
3681564366
3681570531
3681576085
3681581639
3681587010
3681592442
3681595311
3681603307
3681610142
3681614659
3681620824
3681625157
3681631077
3681635777
3681640843
3681646153
3681653843
3681657811
3681663975
3681669163
3681675084
3681681248
3681686802
3681689854
3681698887
3681705296
3681711216
3681716649
3681720311
3681726841
3681731602
3681737950
3681743382
3681748326
3681754978
3681760411
3681764927
3681770664
3681776219
3681781712
3681787388
3681793064
3681799351
3681804051
3681808811
3681816075
3681821262
3681827549
3681834141
3681840916
3681849155
3681855381
3681862217
3681866856
3681872593
3681877415
3681882847
3681888035
3681895847
3681901890
3681907261
3681912144
3681917759
3681923252
3681928806
3681933140
3681939243
3681943943
3681951755
3681956943
3681963474
3681969211
3681973179
3681979587
3681984836
3681995151
3682003818
3682009800
3682017612
3682025852
3682033725
3682040134
3682047519
3682055698
3682063510
3682070774
3682078525
3682085727
3682092868
3682099338
3682107883
3682115512
3682122287
3682129916
3682136325
3682143100
3682150485
3682158176
3682167880
3682174289
3682182773
3682191135
3682199008
3682206271
3682213595
3682220492
3682227450
3682235324
3682241244
3682248202
3682253634
3682260287
3682266269
3682273776
3682280612
3682286471
3682290194
3682295565
3682299594
3682304049
3682308627
3682313327
3682318026
3682322665
3682326632
3682331820
3682336215
3682340548
3682345675
3682350314
3682355258
3682359835
3682364108
3682368807
3682372592
3682377780
3682383639
3682388278
3682393527
3682397250
3682403292
3682407260
3682412386
3682418490
3682424716
3682430697
3682436068
3682442233
3682446139
3682451693
3682455416
3682460543
3682464938
3682470126
3682475069
3682478487
3682485262
3682489596
3682493624
3682498385
3682502657
3682507662
3682513949
3682517306
3682522494
3682526705
3682531771
3682537752
3682540560
3682547213
3682551546
3682557284
3682562044
3682566988
3682571871
3682576876
3682581637
3682588533
3682593538
3682599093
3682602633
3682608797
3682613863
3682618258
3682624849
3682631563
3682635652
3682641390
3682645784
3682650301
3682655306
3682663057
3682667147
3682672029
3682676851
3682679659
3682685945
3682691561
3682695711
3682701448
3682705477
3682709566
3682715059
3682720613
3682726900
3682731661
3682737337
3682741975
3682747224
3682751924
3682755708
3682763521
3682768159
3682774385
3682779390
3682783296
3682789217
3682794832
3682801790
3682807710
3682813081
3682816682
3682821321
3682826387
3682831758
3682837251
3682843355
3682848421
3682853425
3682857026
3682865266
3682871492
3682878999
3682887117
3682890657
3682896028
3682902009
3682907380
3682913301
3682920015
3682925203
3682931184
3682937471
3682943452
3682949494
3682954560
3682960237
3682966706
3682972688
3682977265
3682983979
3682989717
3682995515
3683002046
3683007356
3683012971
3683018952
3683023591
3683027802
3683033540
3683039094
3683045380
3683052216
3683057038
3683062714
3683068391
3683073029
3683081208
3683084504
3683092316
3683097565
3683102692
3683107148
3683112763
3683118928
3683122834
3683132233
3683141633
3683145966
3683151215
3683158051
3683164032
3683170319
3683175934
3683181366
3683185517
3683191620
3683196503
3683202485
3683208039
3683213105
3683218048
3683223969
3683229584
3683235504
3683240387
3683246125
3683251252
3683257843
3683263031
3683268891
3683275666
3683281952
3683286896
3683293183
3683298554
3683302643
3683308136
3683313934
3683320404
3683326508
3683331329
3683336823
3683342926
3683350433
3683359222
3683366180
3683372467
3683376739
3683383453
3683390472
3683394684
3683400848
3683404938
3683410187
3683414337
3683420379
3683425751
3683429718
3683436737
3683442108
3683447052
3683452362
3683456390
3683460602
3683466461
3683472748
3683478790
3683484100
3683489959
3683495636
3683502472
3683507537
3683515411
3683520721
3683526336
3683531219
3683537872
3683541900
3683548126
3683555450
3683560577
3683565704
3683569610
3683575591
3683581207
3683585174
3683592742
3683599395
3683604156
3683610259
3683614044
3683619659
3683623687
3683633086
3683638030
3683643951
3683648406
3683652129
3683658416
3683663604
3683668487
3683675201
3683679900
3683684295
3683690581
3683695769
3683701018
3683707122
3683713347
3683718169
3683722564
3683728972
3683733855
3683738189
3683745757
3683750823
3683756621
3683762053
3683767302
3683771758
3683775847
3683784758
3683789824
3683794402
3683800383
3683804290
3683809478
3683813628
3683820647
3683825896
3683830168
3683835662
3683841765
3683847991
3683854888
3683860320
3683865569
3683873809
3683880217
3683885771
3683888823
3683897246
3683904021
3683908721
3683914214
3683920378
3683925566
3683930693
3683937712
3683941924
3683950224
3683956755
3683962309
3683968840
3683976225
3683981413
3683984343
3683995207
3684001799
3684006621
3684011076
3684016203
3684022307
3684029021
3684033049
3684039519
3684045927
3684051176
3684057707
3684062712
3684068266
3684072477
3684080656
3684088224
3684092863
3684098478
3684105742
3684110075
3684116667
3684129667
3684134855
3684139555
3684146330
3684154631
3684159819
3684164518
3684173002
3684179167
3684185087
3684188444
3684195951
3684200651
3684207670
3684211881
3684218412
3684225675
3684231718
3684237394
3684243498
3684249052
3684252042
3684260465
3684265409
3684272916
3684277982
3684283659
3684290250
3684294950
3684299283
3684306669
3684310819
3684318448
3684323087
3684328885
3684335172
3684339994
3684345060
3684350004
3684355680
3684361539
3684367276
3684370572
3684378629
3684384916
3684389554
3684393827
3684400724
3684405301
3684414212
3684423917
3684428617
3684436368
3684440946
3684447904
3684453702
3684458829
3684465543
3684470792
3684475980
3684485318
3684491544
3684495145
3684505399
3684512601
3684517911
3684522916
3684529141
3684534512
3684540921
3684546475
3684550992
3684558499
3684563199
3684568570
3684575040
3684580838
3684585049
3684590420
3684595303
3684599881
3684605618
3684612454
3684618558
3684623746
3684629605
3684632901
3684640957
3684644314
3684652859
3684660367
3684664456
3684668728
3684674893
3684679104
3684684720
3684689297
3684694851
3684701931
3684707364
3684712918
3684717556
3684722500
3684727505
3684733059
3684735867
3684746548
3684751919
3684757412
3684762722
3684767971
3684773281
3684777371
3684783413
3684789456
3684793728
3684799526
3684803677
3684808621
3684814663
3684819363
3684823818
3684829434
3684835842
3684841030
3684846523
3684851955
3684856899
3684861355
3684866421
3684873623
3684879421
3684884304
3684890530
3684896084
3684900905
3684905605
3684909206
3684914638
3684923549
3684928249
3684933498
3684937588
3684942592
3684947963
3684952053
3684956997
3684965481
3684970363
3684975856
3684982387
3684986904
3684992336
3684998012
3685005092
3685007961
3685017604
3685024379
3685030361
3685034145
3685039028
3685044216
3685049343
3685051967
3685058986
3685063381
3685069606
3685073574
3685079067
3685084316
3685089687
3685093837
3685098598
3685104579
3685110439
3685115260
3685120815
3685126613
3685130580
3685135097
3685139735
3685148647
3685153835
3685159023
3685164149
3685169521
3685174159
3685179103
3685184596
3685189601
3685195216
3685200648
3685206019
3685211085
3685215663
3685220729
3685224879
3685232020
3685236781
3685243739
3685247523
3685252894
3685257838
3685263270
3685267726
3685273219
3685279200
3685283351
3685290187
3685296168
3685303065
3685307826
3685313685
3685320887
3685325953
3685331263
3685336390
3685342128
3685348109
3685351649
3685357508
3685363063
3685369349
3685375819
3685380274
3685385890
3685389918
3685393824
3685398829
3685404261
3685410120
3685415186
3685422450
3685427393
3685432337
3685438136
3685442286
3685446253
3685454371
3685458826
3685465418
3685469691
3685475916
3685479700
3685484217
3685490320
3685494593
3685500574
3685507410
3685512476
3685519800
3685524744
3685530237
3685537623
3685543177
3685551844
3685560450
3685565210
3685572474
3685578638
3685583704
3685592615
3685596216
3685603907
3685608423
3685614954
3685621363
3685625940
3685630701
3685637842
3685642542
3685651392
3685655603
3685660852
3685665064
3685672327
3685676416
3685680933
3685686792
3685691858
3685697962
3685702417
3685707666
3685714685
3685719263
3685726282
3685731409
3685740808
3685746545
3685752771
3685757593
3685763330
3685769434
3685774377
3685779748
3685786157
3685792322
3685799524
3685805139
3685808557
3685815637
3685820764
3685824731
3685829248
3685836633
3685841638
3685848840
3685853845
3685859216
3685863550
3685869165
3685873498
3685883691
3685891137
3685896447
3685899804
3685907617
3685914880
3685920922
3685924279
3685931909
3685936242
3685943383
3685948876
3685954370
3685958520
3685964562
3685968774
3685975854
3685980370
3685987756
3685992455
3685998620
3686003137
3686007836
3686012719
3686019006
3686023766
3686029870
3686035790
3686041711
3686046593
3686051842
3686057275
3686062279
3686070214
3686075219
3686081139
3686086816
3686092309
3686094994
3686101281
3686105065
3686112877
3686119103
3686124291
3686128380
3686132409
3686138390
3686143212
3686150170
3686156029
3686160180
3686167504
3686173180
3686179772
3686185570
3686190819
3686196679
3686202416
3686208214
3686212303
3686217919
3686221886
3686226281
3686232262
3686236412
3686242150
3686248924
3686255089
3686260277
3686269310
3686272789
3686278160
3686282677
3686290367
3686295250
3686301048
3686307030
3686312950
3686318260
3686323998
3686328270
3686332665
3686340355
3686345726
3686351158
3686356163
3686361473
3686366600
3686370201
3686376305
3686381737
3686387779
3686393883
3686398521
3686405907
3686411094
3686418480
3686423607
3686432091
3686436729
3686443321
3686448387
3686453819
3686462120
3686468406
3686475242
3686481407
3686486229
3686490928
3686500816
3686509361
3686514244
3686519249
3686522056
3686532371
3686535972
3686542686
3686548789
3686553977
3686557823
3686564536
3686569908
3686575035
3686580039
3686585533
3686591087
3686597434
3686602989
3686608909
3686617881
3686622337
3686627464
3686634116
3686640647
3686647178
3686652976
3686657127
3686664573
3686669456
3686675437
3686679648
3686686362
3686691184
3686695762
3686701621
3686705833
3686711814
3686718772
3686729331
3686734824
3686738913
3686744895
3686750937
3686756431
3686761313
3686767844
3686771994
3686777182
3686782676
3686787741
3686792258
3686800071
3686803855
3686810752
3686815818
3686820883
3686826499
3686831626
3686836692
3686845114
3686850058
3686855185
3686860922
3686865683
3686871359
3686876120
3686880759
3686886801
3686893210
3686897543
3686904868
3686909506
3686915732
3686918967
3686926108
3686933432
3686938254
3686943503
3686950949
3686954794
3686960471
3686966452
3686972250
3686979025
3686984457
3686990317
3686995810
3687001303
3687005270
3687012045
3687020346
3687026816
3687032675
3687038290
3687044211
3687048239
3687054403
3687058676
3687065512
3687070334
3687076071
3687082602
3687087179
3687092306
3687096701
3687103537
3687107565
3687115133
3687120077
3687126058
3687135458
3687141500
3687147360
3687151632
3687157736
3687163351
3687167501
3687173300
3687180135
3687185629
3687190145
3687195577
3687199911
3687208273
3687211446
3687217977
3687224630
3687228597
3687235189
3687240011
3687245260
3687250021
3687258077
3687262044
3687269063
3687273946
3687279256
3687283895
3687290243
3687295248
3687305135
3687312215
3687318441
3687323812
3687328817
3687333944
3687339498
3687345357
3687351949
3687357442
3687362996
3687368795
3687374471
3687378926
3687384542
3687390279
3687394124
3687400960
3687406270
3687412679
3687417195
3687422261
3687428731
3687433858
3687438741
3687445394
3687450521
3687457845
3687462789
3687468953
3687474263
3687479695
3687484029
3687491963
3687497517
3687503072
3687507588
3687512471
3687519063
3687523335
3687528584
3687534200
3687540974
3687546529
3687552449
3687557881
3687563557
3687569539
3687575276
3687580952
3687587910
3687594319
3687598530
3687604390
3687611775
3687619771
3687623982
3687628254
3687635945
3687642537
3687648213
3687653462
3687658894
3687663472
3687669087
3687673542
3687682331
3687687031
3687693501
3687697956
3687702229
3687708638
3687713581
3687718525
3687723774
3687731037
3687736164
3687741535
3687747273
3687753376
3687757893
3687763386
3687768330
3687776203
3687782795
3687788410
3687794087
3687800068
3687804340
3687810444
3687814899
3687820454
3687825520
3687831623
3687836994
3687842121
3687847370
3687852253
3687857746
3687862202
3687870869
3687880878
3687883686
3687891804
3687898456
3687905292
3687911213
3687917316
3687921955
3687927448
3687931965
3687938251
3687942585
3687948444
3687953693
3687960102
3687967243
3687972004
3687977008
3687983112
3687988117
3687993244
3687998859
3688003864
3688011493
3688016742
3688022113
3688026386
3688032978
3688037311
3688043537
3688047931
3688054096
3688061237
3688065753
3688072284
3688079364
3688084491
3688090411
3688097797
3688103473
3688111285
3688117084
3688123187
3688129779
3688136127
3688141254
3688147845
3688151385
3688159442
3688164142
3688171954
3688177264
3688183063
3688188678
