3472760579
3472766317
3472772115
3472776449
3472782735
3472787679
3472793538
3472798482
3472804586
3472809957
3472815755
3472821798
3472827901
3472833577
3472839803
3472845723
3472851216
3472858113
3472864644
3472870320
3472879231
3472885091
3472893025
3472900716
3472906880
3472914082
3472919942
3472927510
3472934041
3472939534
3472948445
3472956380
3472963399
3472970662
3472974324
3472985310
3472991536
3473000081
3473006795
3473013203
3473021382
3473028462
3473035359
3473042378
3473050007
3473058064
3473065632
3473072773
3473080403
3473088093
3473095540
3473101033
3473109700
3473115010
3473124043
3473130757
3473137837
3473146199
3473151997
3473161152
3473167683
3473175312
3473184590
3473189533
3473199604
3473208820
3473216572
3473225056
3473232990
3473238422
3473247700
3473256733
3473265095
3473272297
3473281452
3473288288
3473297809
3473305195
3473312397
3473319355
3473326435
3473333698
3473341388
3473348896
3473355427
3473364521
3473371601
3473380817
3473388263
3473395649
3473403827
3473409198
3473417682
3473423908
3473432880
3473442157
3473450397
3473458026
3473466571
3473474567
3473481708
3473488788
3473496600
3473504108
3473512836
3473519977
3473527484
3473535236
3473544025
3473552509
3473559406
3473566486
3473575336
3473581805
3473590411
3473599322
3473607135
3473614520
3473622577
3473631427
3473635943
3473646197
3473654010
3473661334
3473669269
3473677142
3473685138
3473693072
3473701068
3473708087
3473715838
3473724261
3473731890
3473738848
3473746356
3473754840
3473763018
3473770770
3473777056
3473784686
3473792681
3473800005
3473806536
3473815020
3473821246
3473830401
3473837481
3473845538
3473850115
3473859942
3473868426
3473874712
3473885943
3473893389
3473900835
3473908404
3473915423
3473922869
3473929033
3473936419
3473945574
3473953631
3473961138
3473969378
3473977373
3473983904
3473993670
3473999224
3474009356
3474017351
3474024004
3474032061
3474039507
3474045671
3474052629
3474076494
3474084001
3474090105
3474099321
3474105669
3474114580
3474119035
3474128252
3474134416
3474144182
3474148393
3474157426
3474161516
3474170793
3474177934
3474185747
3474193559
3474200822
3474205766
3474214738
3474222185
3474229509
3474238542
3474246599
3474253557
3474259294
3474268083
3474273820
3474281755
3474289750
3474299089
3474305253
3474313676
3474320329
3474327287
3474335954
3474342851
3474350175
3474357438
3474361894
3474372819
3474380326
3474387773
3474396073
3474401505
3474409928
3474417741
3474425248
3474432328
3474438493
3474445634
3474452714
3474459855
3474470170
3474476029
3474483964
3474489884
3474497391
3474503312
3474511796
3474519852
3474527054
3474534318
3474541642
3474549027
3474556717
3474565018
3474570878
3474580887
3474593644
3474599625
3474609330
3474615555
3474623978
3474630326
3474642716
3474649979
3474657242
3474666825
3474672623
3474680863
3474689469
3474698013
3474707108
3474714920
3474722000
3474730057
3474736832
3474744827
3474752213
3474759293
3474766678
3474773819
3474781143
3474788162
3474794693
3474803360
3474811111
3474818619
3474826370
3474831985
3474841690
3474848343
3474855850
3474863235
3474871414
3474878860
3474887039
3474894241
3474900955
3474909133
3474915481
3474924636
3474931228
3474937820
3474945571
3474952407
3474960342
3474968276
3474976394
3474983596
3474990554
3474998428
3475005447
3475011977
3475019302
3475027297
3475033218
3475039687
3475047317
3475054336
3475060317
3475068618
3475075210
3475085219
3475089736
3475098403
3475105849
3475112929
3475117934
3475128432
3475135940
3475140517
3475149245
3475155288
3475159011
3475165908
3475170363
3475179824
3475186782
3475192397
3475196608
3475203078
3475208632
3475215041
3475220168
3475225905
3475231032
3475241835
3475247817
3475256850
3475264235
3475271926
3475279921
3475284743
3475289748
3475296340
3475302016
3475308608
3475315077
3475322157
3475328200
3475332411
3475338026
3475342543
3475351637
3475357008
3475362196
3475367079
3475372206
3475378615
3475382826
3475390822
3475396498
3475401198
3475407728
3475410658
3475418165
3475424147
3475428847
3475434584
3475440321
3475445814
3475450636
3475454786
3475461378
3475467726
3475473036
3475478773
3475483778
3475488295
3475494825
3475500563
3475506666
3475511671
3475516066
3475521742
3475525953
3475533583
3475540846
3475546034
3475552626
3475557936
3475563307
3475570082
3475573438
3475580885
3475585951
3475591383
3475596632
3475602918
3475608411
3475614149
3475620496
3475625562
3475630689
3475635999
3475642652
3475645582
3475653272
3475659071
3475664503
3475669691
3475672742
3475680616
3475685682
3475690443
3475697034
3475701795
3475707227
3475714246
3475721753
3475726026
3475732679
3475739515
3475744275
3475751233
3475756604
3475760877
3475768628
3475776136
3475781812
3475788831
3475794934
3475801831
3475806897
3475813672
3475818006
3475823621
3475829602
3475834485
3475841748
3475847302
3475852063
3475856641
3475861890
3475867993
3475874524
3475879224
3475884900
3475890820
3475896069
3475901196
3475906751
3475911694
3475918591
3475925183
3475929578
3475936047
3475940747
3475946118
3475952832
3475958325
3475963452
3475967053
3475974988
3475982007
3475985364
3475991894
3475995495
3476002209
3476008618
3476013440
3476020581
3476026318
3476029553
3476035962
3476039685
3476046704
3476053296
3476058362
3476063488
3476067639
3476073376
3476079968
3476085461
3476091931
3476096569
3476103527
3476108715
3476113964
3476121472
3476126965
3476132763
3476138378
3476143322
3476148327
3476154125
3476161389
3476167370
3476172802
3476178723
3476187451
3476193676
3476198254
3476203808
3476208813
3476215466
3476220837
3476227184
3476232922
3476240246
3476246227
3476251415
3476258617
3476263622
3476269115
3476276012
3476281261
3476287243
3476293346
3476297558
3476304210
3476309643
3476315136
3476320812
3476324901
3476331737
3476337169
3476343883
3476350109
3476357982
3476362804
3476368297
3476373424
3476379467
3476385692
3476392467
3476398693
3476403514
3476408031
3476413890
3476418956
3476424999
3476430858
3476436107
3476441966
3476448009
3476452953
3476458629
3476463939
3476471385
3476476634
3476481090
3476488048
3476491588
3476499156
3476504161
3476508861
3476515819
3476520457
3476525157
3476532420
3476537181
3476544078
3476549327
3476554942
3476561107
3476565990
3476572520
3476578685
3476586070
3476604686
3476614146
3476623363
3476632762
3476639415
3476645091
3476649974
3476656199
3476661265
3476667796
3476673228
3476679759
3476687449
3476694224
3476700145
3476705455
3476714732
3476721324
3476728160
3476734080
3476741770
3476749827
3476757517
3476763560
3476768321
3476773387
3476778697
3476782786
3476788889
3476794749
3476799510
3476804881
3476809580
3476814524
3476819468
3476827097
3476831553
3476837839
3476843943
3476849070
3476854868
3476860361
3476866465
3476871653
3476877939
3476883189
3476888743
3476894785
3476900706
3476906138
3476912302
3476917307
3476923350
3476928660
3476934702
3476940012
3476944773
3476951914
3476956431
3476963388
3476969126
3476974680
3476978098
3476985910
3476991892
3476997873
3477003916
3477009409
3477014658
3477020761
3477026255
3477031748
3477038584
3477044260
3477050974
3477055673
3477062265
3477066965
3477072702
3477077463
3477085520
3477088937
3477095651
3477100839
3477107126
3477113168
3477118600
3477124826
3477130380
3477135873
3477141489
3477146432
3477151987
3477157968
3477163888
3477169260
3477176218
3477181467
3477187387
3477192636
3477197946
3477204965
3477212106
3477218088
3477222909
3477229013
3477234262
3477238962
3477245614
3477253122
3477260141
3477268075
3477274911
3477280526
3477284677
3477292794
3477297982
3477303537
3477308725
3477314340
3477319772
3477323983
3477329782
3477334115
3477340768
3477346871
3477352059
3477356820
3477362069
3477367928
3477373605
3477379708
3477383737
3477390633
3477396249
3477401315
3477406442
3477411507
3477418588
3477424630
3477429574
3477434823
3477441109
3477446603
3477452340
3477457833
3477462228
3477468331
3477472481
3477478890
3477485238
3477490731
3477496346
3477501900
3477508492
3477513070
3477520638
3477526070
3477531807
3477537606
3477543282
3477550545
3477557076
3477563057
3477565987
3477572579
3477580086
3477585091
3477593392
3477597847
3477604378
3477607308
3477614815
3477619698
3477626717
3477632332
3477636544
3477642708
3477647408
3477652596
3477658028
3477664864
3477669930
3477674019
3477680245
3477685982
3477691414
3477698555
3477704353
3477709786
3477715584
3477721931
3477726265
3477733101
3477738411
3477743477
3477749641
3477754951
3477760322
3477767158
3477772529
3477778999
3477787178
3477793648
3477798225
3477804329
3477809761
3477815010
3477819404
3477826362
3477829475
3477837471
3477840522
3477847358
3477852241
3477858467
3477864265
3477869758
3477875312
3477879158
3477885444
3477890876
3477896370
3477901008
3477941963
3477949653
3477957038
3477964546
3477970771
3477979316
3477986579
3477994148
3478002937
3478008796
3478014167
3478019416
3478025275
3478031257
3478036750
3478042426
3478047736
3478053107
3478060859
3478066108
3478071235
3478076850
3478079902
3478087226
3478092536
3478096931
3478103156
3478107734
3478113898
3478117927
3478123542
3478129645
3478135322
3478138801
3478145881
3478149848
3478154364
3478160407
3478166571
3478170295
3478177069
3478182013
3478186896
3478194525
3478198310
3478205939
3478211188
3478217658
3478223395
3478230719
3478238715
3478243903
3478249274
3478255622
3478261420
3478266608
3478272223
3478277594
3478283392
3478289069
3478295477
3478301215
3478305304
3478312384
3478317328
3478322333
3478329230
3478333990
3478338629
3478344794
3478349371
3478353888
3478359564
3478362982
3478370734
3478376166
3478380865
3478387030
3478391852
3478396918
3478403692
3478410589
3478414923
3478422003
3478426642
3478432806
3478439337
3478443243
3478450628
3478456427
3478461798
3478467901
3478472845
3478478033
3478485784
3478489325
3478496527
3478501470
3478506903
3478512457
3478518072
3478524053
3478529669
3478532476
3478540716
3478546209
3478550726
3478559576
3478565008
3478571417
3478576605
3478582769
3478588506
3478595831
3478600713
3478606512
3478611761
3478617132
3478624029
3478630560
3478636846
3478643316
3478647832
3478655462
3478660589
3478666143
3478672857
3478677556
3478684942
3478690252
3478695989
3478702398
3478708989
3478713994
3478719365
3478723760
3478731023
3478736577
3478743474
3478749578
3478754705
3478759526
3478766179
3478771611
3478777410
3478784368
3478788457
3478794744
3478800603
3478805791
3478811528
3478817571
3478822393
3478829106
3478835332
3478839849
3478846135
3478849614
3478856694
3478863530
3478868047
3478875981
3478881719
3478887944
3478893681
3478900029
3478903630
3478911259
3478915166
3478922124
3478928960
3478932439
3478939214
3478944524
3478948796
3478956364
3478961857
3478967168
3478973698
3478978215
3478984379
3478990178
3478995915
3479001774
3479006962
3479013493
3479017888
3479023686
3479031743
3479037541
3479042668
3479048161
3479051823
3479058415
3479062382
3479069279
3479075566
3479080082
3479086552
3479091435
3479096134
3479104435
3479110295
3479115299
3479121769
3479129826
3479137638
3479143925
3479151066
3479158451
3479164555
3479171269
3479176823
3479183415
3479188725
3479194950
3479200260
3479206364
3479211247
3479218754
3479224186
3479230045
3479234440
3479240421
3479246464
3479250614
3479257938
3479263676
3479268864
3479273502
3479279484
3479284183
3479291508
3479298343
3479303348
3479308536
3479313541
3479320743
3479325443
3479331485
3479336918
3479341922
3479348087
3479353702
3479356754
3479365421
3479371585
3479375553
3479381778
3479386661
3479391727
3479399662
3479405460
3479411258
3479415531
3479420719
3479428165
3479432498
3479437564
3479445377
3479449039
3479456729
3479461551
3479465823
3479473453
3479481204
3479485538
3479491702
3479496829
3479501956
3479506900
3479512576
3479518558
3479524722
3479528567
3479535648
3479541568
3479546512
3479555606
3479561038
3479565188
3479571597
3479576907
3479582278
3479588809
3479592654
3479601321
3479606997
3479613284
3479620852
3479625674
3479633975
3479641787
3479645572
3479652530
3479658877
3479664370
3479671145
3479676089
3479681033
3479686282
3479690676
3479697512
3479703128
3479708132
3479713504
3479718753
3479723757
3479732546
3479736270
3479744143
3479750063
3479754885
3479761477
3479767825
3479774050
3479779299
3479783938
3479790225
3479795962
3479801638
3479808230
3479815066
3479820986
3479826907
3479832705
3479837893
3479843325
3479850161
3479856203
3479862246
3479867800
3479873232
3479877810
3479885927
3479892519
3479897524
3479904787
3479910341
3479915774
3479922121
3479928652
3479934267
3479939638
3479943544
3479952150
3479957155
3479962343
3479968325
3479975222
3479980165
3479986391
3479990663
3479997438
3480003054
3480008669
3480016970
3480021852
3480029726
3480036684
3480042543
3480047426
3480054018
3480059206
3480065065
3480070680
3480082582
3480088503
3480094240
3480101442
3480107851
3480114137
3480119081
3480124696
3480131227
3480136049
3480141237
3480147584
3480157045
3480163637
3480169374
3480174257
3480178956
3480185914
3480190614
3480197023
3480201600
3480208619
3480211610
3480218934
3480224672
3480230348
3480236329
3480241761
3480248719
3480253297
3480259767
3480265321
3480269838
3480276490
3480281312
3480285951
3480292543
3480298097
3480303346
3480308839
3480314210
3480320924
3480326478
3480331788
3480337281
3480342591
3480348451
3480354493
3480360413
3480366700
3480371400
3480377503
3480382203
3480389832
3480395631
3480401246
3480405152
3480411866
3480418336
3480424012
3480429322
3480433961
3480440675
3480445862
3480452943
3480459473
3480465027
3480469666
3480475464
3480481324
3480486695
3480493226
3480499085
3480503052
3480509400
3480515198
3480520875
3480525696
3480535218
3480541077
3480545411
3480551636
3480557434
3480563904
3480568482
3480575440
3480580078
3480587281
3480590699
3480597718
3480603150
3480611939
3480617737
3480626221
3480631958
3480636597
3480643616
3480649536
3480654785
3480660462
3480665955
3480671021
3480676697
3480681763
3480685974
3480691773
3480698853
3480703918
3480710266
3480715515
3480719971
3480726440
3480730713
3480735779
3480742248
3480747803
3480753601
3480757934
3480763306
3480767517
3480774170
3480779602
3480785034
3480791015
3480796631
3480802734
3480808349
3480814087
3480820068
3480825622
3480829712
3480835998
3480841980
3480848266
3480852966
3480859130
3480864624
3480871582
3480878173
3480882324
3480888427
3480894470
3480899902
3480905578
3480912719
3480918151
3480923461
3480928893
3480934142
3480940673
3480946594
3480952636
3480958251
3480963622
3480969055
3480974365
3480981017
3480984985
3480992309
3480996948
3481002990
3481007446
3481013915
3481020385
3481025756
3481032348
3481038940
3481043822
3481048827
3481054259
3481059630
3481066100
3481071227
3481077514
3481083739
3481089538
3481094970
3481099791
3481105834
3481110351
3481117309
3481127135
3481134948
3481140807
3481145507
3481151244
3481156737
3481161986
3481168151
3481173827
3481179259
3481183654
3481190062
3481196410
3481202208
3481207274
3481213622
3481218077
3481223265
3481229308
3481234862
3481240904
3481245543
3481251341
3481255675
3481262938
3481267760
3481272948
3481279356
3481284850
3481291686
3481299010
3481304259
3481310362
3481315550
3481321532
3481327147
3481331663
3481337828
3481342467
3481348936
3481353514
3481359923
3481364683
3481371824
3481377989
3481383543
3481389097
3481394591
3481400999
3481406492
3481413145
3481419188
3481424864
3481429503
3481436155
3481440855
3481447081
3481452391
3481459227
3481466185
3481472044
3481476499
3481482481
3481488523
3481493528
3481502256
3481507566
3481513120
3481519285
3481525144
3481530454
3481534422
3481541807
3481546446
3481552366
3481557859
3481563230
3481568784
3481574033
3481580991
3481585508
3481592283
3481596861
3481604917
3481610532
3481615964
3481622251
3481627683
3481632688
3481638303
3481644834
3481650449
3481657773
3481662229
3481670286
3481676877
3481682615
3481690122
3481695859
3481700986
3481706296
3481713071
3481718747
3481725400
3481730161
3481734983
3481740232
3481744992
3481751645
3481756711
3481762632
3481766721
3481771299
3481777219
3481780698
3481787839
3481794492
3481799680
3481804746
3481809445
3481815854
3481821408
3481826840
3481833859
3481839719
3481843381
3481850400
3481854428
3481862241
3481868222
3481873715
3481879086
3481885190
3481890439
3481896725
3481903683
3481908444
3481914975
3481921078
3481925473
3481931943
3481935849
3481943173
3481948422
3481954770
3481961911
3481967892
3481973019
3481979672
3481984738
3481989071
3481995358
3482000241
3482007565
3482012692
3482018124
3482022946
3482027157
3482033627
3482039669
3482044857
3482052365
3482057370
3482062497
3482068539
3482072689
3482081539
3482085079
3482092709
3482098263
3482104122
3482109127
3482116329
3482122250
3482129025
3482134030
3482141720
3482149532
3482153317
3482161434
3482166622
3482171383
3482177609
3482182980
3482189144
3482193722
3482199154
3482205746
3482211727
3482217281
3482222347
3482225948
3482233578
3482239254
3482244564
3482249569
3482255855
3482259701
3482266903
3482273067
3482277584
3482282833
3482287533
3482293636
3482299068
3482303158
3482309810
3482316036
3482320980
3482325618
3482331112
3482336605
3482344234
3482348507
3482354793
3482360958
3482364742
3482371456
3482376461
3482383174
3482388362
3482394466
3482398921
3482405147
3482409542
3482417842
3482423702
3482428707
3482433650
3482439876
3482445674
3482453304
3482457088
3482463496
3482468135
3482473933
3482478389
3482484065
3482492427
3482496944
3482501399
3482507137
3482511104
3482519710
3482527156
3482531184
3482538631
3482544490
3482551021
3482557063
3482563472
3482568172
3482573176
3482579951
3482585689
3482592402
3482598811
3482606379
3482612971
3482618281
3482625361
3482629329
3482637507
3482642390
3482648371
3482653621
3482658992
3482664302
3482669673
3482674189
3482681575
3482686396
3482691950
3482699397
3482707026
3482712947
3482718379
3482722773
3482730219
3482735285
3482739619
3482746272
3482752985
3482757563
3482763972
3482767695
3482774714
3482780024
3482785883
3482791438
3482796809
3482801691
3482807429
3482812861
3482819331
3482827082
3482832758
3482838373
3482842219
3482847162
3482854975
3482861445
3482865961
3482872248
3482876154
3482882746
3482889216
3482894404
3482901789
3482906733
3482911371
3482916559
3482922175
3482929987
3482935358
3482941095
3482947870
3482954584
3482959955
3482965937
3482970331
3482977960
3482983942
3482989252
3482996393
3483001276
3483009821
3483016168
3483020319
3483027277
3483031854
3483039118
3483044855
3483051202
3483059808
3483068720
3483073541
3483080438
3483088861
3483093378
3483100214
3483105890
3483111444
3483117364
3483121515
3483128168
3483135126
3483140069
3483146356
3483152154
3483157464
3483161127
3483169000
3483174920
3483178949
3483186029
3483191339
3483197748
3483204339
3483207452
3483214959
3483222039
3483226190
3483233392
3483236505
3483245599
3483251764
3483255304
3483263482
3483265252
3483273309
3483280145
3483286065
3483291558
3483297479
3483302300
3483308587
3483314874
3483320794
3483326165
3483332147
3483337640
3483343743
3483347955
3483353814
3483359918
3483366082
3483371453
3483377313
3483382989
3483389153
3483394952
3483401665
3483406731
3483412102
3483418633
3483425774
3483429131
3483436822
3483442010
3483446282
3483453667
3483459710
3483465569
3483472039
3483478142
3483484368
3483490288
3483497551
3483502556
3483508416
3483514641
3483519463
3483524468
3483530999
3483539055
3483546318
3483554192
3483560295
3483565972
3483571160
3483575554
3483583000
3483588127
3483593437
3483600090
3483605217
3483610466
3483615532
3483620720
3483626396
3483632195
3483636528
3483642510
3483648674
3483653862
3483660088
3483665459
3483670525
3483676140
3483682243
3483687920
3483692863
3483698906
3483704704
3483711357
3483716362
3483721123
3483731560
3483736503
3483741875
3483748466
3483752983
3483759880
3483765983
3483771538
3483777275
3483781669
3483789421
3483797294
3483801262
3483807609
3483813102
3483817985
3483824760
3483830803
3483835929
3483841911
3483848259
3483853996
3483861747
3483866508
3483873222
3483879264
3483885612
3483891838
3483894889
3483902214
3483909904
3483914848
3483919670
3483927421
3483932060
3483941093
3483947868
3483951591
3483957877
3483963432
3483968009
3483974906
3483981742
3483986930
3483991141
3483997245
3484003165
3484008475
3484015617
3484025138
3484032157
3484036979
3484045219
3484051566
3484056815
3484063041
3484067985
3484074088
3484078299
3484084281
3484090690
3484094779
3484102286
3484107108
3484113211
3484118644
3484123404
3484129203
3484136527
3484140799
3484146781
3484151725
3484156180
3484162101
3484168204
3484173209
3484179312
3484186453
3484193656
3484198844
3484204642
3484210990
3484216727
3484220511
3484226553
3484233511
3484239798
3484245902
3484251334
3484256522
3484261527
3484266226
3484273245
3484277396
3484283560
3484289725
3484294546
3484300711
3484305350
3484311392
3484317618
3484322806
3484328543
3484333914
3484338431
3484344473
3484350943
3484356253
3484362539
3484368643
3484373587
3484380301
3484385611
3484391409
3484397635
3484402395
3484409964
3484416250
3484421988
3484428885
3484434561
3484439749
3484446585
3484450796
3484458120
3484464529
3484470388
3484475332
3484481985
3484487112
3484494558
3484500234
3484508840
3484515127
3484520803
3484525259
3484528005
3484535635
3484540640
3484546255
3484551260
3484557302
3484563284
3484567983
3484574941
3484579641
3484584585
3484589834
3484595205
3484602407
3484608511
3484613271
3484620046
3484624563
3484629812
3484638479
3484656850
3484663564
3484666250
3484673269
3484678579
3484684255
3484689016
3484694143
3484700429
3484706350
3484711477
3484716970
3484723439
3484730397
3484736318
3484741872
3484746999
3484752736
3484757436
3484763478
3484768117
3484772573
3484779592
3484784596
3484789296
3484795156
3484801564
3484806935
3484812734
3484817861
3484822133
3484828725
3484833180
3484839467
3484844655
3484849660
3484855519
3484858083
3484865102
3484873341
3484877370
3484883229
3484889088
3484894398
3484900258
3484909169
3484914479
3484919301
3484926015
3484932118
3484937001
3484942189
3484946278
3484952687
3484959279
3484963063
3484970387
3484975514
3484981007
3484987172
3484992054
3484996144
3485002614
3485008351
3485013722
3485019337
3485024464
3485030201
3485035084
3485040394
3485046559
3485054554
3485062001
3485068409
3485074208
3485080128
3485084828
3485090260
3485095814
3485101246
3485105335
3485110218
3485116810
3485124012
3485128651
3485133473
3485140858
3485145252
3485150990
3485155079
3485161427
3485167225
3485170826
3485177418
3485185413
3485189991
3485195118
3485201099
3485210560
3485216968
3485223255
3485228260
3485233021
3485238331
3485243885
3485249866
3485255237
3485260486
3485264820
3485270374
3485273975
3485280811
3485287098
3485292225
3485297229
3485302051
3485308033
3485313831
3485319751
3485324329
3485330310
3485335010
3485342762
3485350513
3485358203
3485366138
3485373523
3485380298
3485385547
3485391529
3485397693
3485402759
3485408069
3485413074
3485418506
3485425220
3485430713
3485436817
3485442493
3485447986
3485453113
3485457874
3485466174
3485471545
3485477466
3485483997
3485489307
3485494861
3485502124
3485507068
3485513476
3485518909
3485524463
3485529590
3485535327
3485542102
3485548388
3485553393
3485559436
3485564868
3485569873
3485578235
3485584399
3485592639
3485598559
3485603564
3485611071
3485616381
3485622424
3485628650
3485634204
3485639819
3485645983
3485651782
3485658374
3485664477
3485670642
3485676318
3485682177
3485687548
3485693347
3485699511
3485704577
3485710009
3485715197
3485721850
3485726855
3485732165
3485738268
3485744860
3485749743
3485756274
3485761462
3485766894
3485772021
3485777270
3485788012
3485793688
3485799303
3485803637
3485810046
3485815966
3485821642
3485828112
3485834948
3485840929
3485846300
3485853869
3485858935
3485865709
3485871203
3485876330
3485882494
3485888048
3485893297
3485897753
3485905626
3485909105
3485916491
3485919542
3485927111
3485934313
3485939745
3485945665
3485951708
3485958055
3485962633
3485967760
3485973802
3485980089
3485984972
3485991747
3485996996
3486002916
3486008592
3486014086
3486019762
3486025438
3486031419
3486036852
3486042345
3486048509
3486054796
3486059435
3486065599
3486070116
3486076585
3486081163
3486088121
3486093919
3486099474
3486105211
3486110887
3486117418
3486123094
3486128892
3486134935
3486144212
3486149095
3486154527
3486161363
3486167833
3486173814
3486179857
3486185716
3486191697
3486197191
3486201829
3486208177
3486215135
3486220628
3486226548
3486232164
3486238877
3486242906
3486251084
3486255601
3486261216
3486265672
3486273179
3486278672
3486283860
3486289475
3486295579
3486301743
3486306138
3486313218
3486317063
3486324693
3486332444
3486339829
3486347459
3486354661
3486358567
3486364915
3486370652
3486377610
3486383652
3486391160
3486396775
3486402573
3486407883
3486413010
3486419358
3486423630
3486429368
3486435837
3486441147
3486446946
3486452073
3486457383
3486462449
3486468796
3486474534
3486479050
3486484482
3486490342
3486494675
3486501633
3486506638
3486511948
3486517624
3486522812
3486529221
3486533371
3486539658
3486545639
3486551071
3486555405
3486561264
3486567551
3486572556
3486577866
3486584763
3486589340
3486594895
3486599899
3486605942
3486611496
3486617417
3486622849
3486628708
3486634384
3486641586
3486646286
3486653488
3486657700
3486664902
3486669479
3486676010
3486681381
3486687363
3486693344
3486698837
3486704758
3486709701
3486715195
3486721237
3486727463
3486732590
3486738144
3486742782
3486750412
3486755722
3486761032
3486765793
3486772079
3486778976
3486784652
3486788803
3486796676
3486801437
3486807113
3486813827
3486820907
3486826828
3486833725
3486841415
3486847763
3486854537
3486860275
3486864913
3486873336
3486878524
3486884262
3486889572
3486895126
3486904586
3486912582
3486920272
3486927230
3486932906
3486938033
3486943099
3486949569
3486955795
3486961105
3486967635
3486972884
3486978133
3486983260
3486988692
3486994308
3487000655
3487005111
3487014266
3487021041
3487026473
3487032760
3487037276
3487044906
3487047835
3487055221
3487061751
3487067244
3487072860
3487078658
3487084945
3487089095
3487098494
3487100631
3487110701
3487118087
3487125045
3487131392
3487135543
3487143233
3487148543
3487154525
3487160201
3487165206
3487170516
3487178511
3487182479
3487189314
3487196272
3487201033
3487206038
3487213667
3487219222
3487225020
3487233199
3487238326
3487244307
3487249373
3487258406
3487263716
3487268233
3487274886
3487279463
3487284407
3487291426
3487295454
3487302290
3487307967
3487313277
3487318342
3487322310
3487330122
3487335493
3487340376
3487347212
3487352339
3487358992
3487368025
3487374312
3487383772
3487390547
3487394331
3487400435
3487406904
3487413008
3487420881
3487425093
3487432356
3487438276
3487443403
3487450544
3487459089
3487463606
3487470930
3487476057
3487480818
3487486250
3487492780
3487498335
3487503706
3487508039
3487514021
3487517500
3487523969
3487530012
3487536665
3487543195
3487546491
3487554609
3487560285
3487564008
3487572614
3487576643
3487583234
3487588911
3487594526
3487599775
3487607648
3487612165
3487618818
3487623884
3487628644
3487634931
3487642072
3487646345
3487653547
3487657392
3487663801
3487669050
3487674848
3487681134
3487687055
3487693341
3487699750
3487702253
3487712445
3487718244
3487723615
3487729474
3487734418
3487740644
3487744977
3487750531
3487758039
3487766217
3487771527
3487776532
3487782453
3487789105
3487795758
3487799481
3487806622
3487812116
3487817059
3487824201
3487834332
3487839459
3487844403
3487850507
3487855573
3487862286
3487868085
3487872418
3487880963
3487885724
3487892743
3487896344
3487906110
3487911053
3487917157
3487921979
3487928815
3487933636
3487940655
3487947369
3487952862
3487957501
3487961834
3487968426
3487974408
3487979474
3487985760
3487991314
3487996197
3488002179
3488007122
3488013775
3488020489
3488025860
3488030865
3488037213
3488041607
3488048016
3488053204
3488061016
3488066754
3488072369
3488077618
3488084454
3488091229
3488096234
3488102703
3488107769
3488113751
3488118572
3488125347
3488132366
3488137310
3488142315
3488146221
3488153484
3488159100
3488164165
3488171917
3488175091
3488182110
3488187847
3488193951
3488198955
3488204937
3488210247
3488216411
3488222698
3488227947
3488234844
3488238933
3488246135
3488251629
3488256511
3488261821
3488266094
3488273662
3488279400
3488284588
3488290752
3488296001
3488301738
3488308330
3488314495
3488318950
3488325908
3488330242
3488337627
3488341899
3488349773
3488356121
3488364849
3488369976
3488375041
3488378948
3488388103
3488393230
3488399028
3488403484
3488409465
3488414165
3488421550
3488429057
3488434978
3488441509
3488446330
3488451518
3488458965
3488465007
3488470439
3488475993
3488480571
3488486796
3488491618
3488496867
3488503642
3488509135
3488513530
3488520000
3488523845
3488529582
3488535747
3488541240
3488546489
3488551738
3488557780
3488563884
3488569011
3488576030
3488581157
3488586161
3488591838
3488595500
3488602824
3488609233
3488613871
3488619181
3488624247
3488630839
3488637370
3488643840
3488648783
3488655131
3488660929
3488665202
3488670695
3488676921
3488682231
3488688822
3488693949
3488700236
3488705668
3488712138
3488717631
3488722575
3488729166
3488734843
3488739359
3488744975
3488751688
3488760294
3488765726
3488770731
3488776469
3488783671
3488788004
3488794596
3488801493
3488808573
3488814310
3488820963
3488827128
3488833964
3488839029
3488844706
3488849344
3488855387
3488859781
3488865580
3488871988
3488877970
3488884317
3488889627
3488896341
3488901896
3488907755
3488913919
3488918314
3488924173
3488928263
3488935831
3488941873
3488946268
3488952616
3488958353
3488963541
3488970560
3488976175
3488982401
3488988809
3488993265
3489000955
3489006815
3489013468
3489018717
3489023599
3489029642
3489035928
3489040262
3489050943
3489064920
3489072427
3489078348
3489085611
3489090860
3489097391
3489103006
3489108316
3489114786
3489119668
3489124246
3489132364
3489139993
3489144082
3489149576
3489156106
3489161233
3489167825
3489174722
3489178811
3489186319
3489191079
3489199563
3489206460
3489212747
3489219949
3489228555
3489234475
3489241922
3489247781
3489257180
3489262918
3489270974
3489277200
3489283547
3489291360
3489303506
3489316201
3489323403
3489329202
3489338540
3489344949
3489351113
3489360146
3489365334
3489374184
3489380471
3489386819
3489394204
3489400185
3489406960
3489410012
3489417214
3489422036
3489426552
3489434121
3489439797
3489444314
3489452736
3489458107
3489464821
3489468789
3489476967
3489483376
3489487893
3489494362
3489499855
3489504982
3489511391
3489518288
3489524391
3489530007
3489535561
3489541725
3489546608
3489553566
3489560097
3489565956
3489572487
3489579811
3489585671
3489591713
3489598000
3489603249
3489610390
3489615883
3489621437
3489629799
3489635719
3489642738
3489649330
3489655617
3489662819
3489670753
3489677223
3489685036
3489691505
3489699135
3489704445
3489712135
3489720802
3489727638
3489733375
3489738991
3489747902
3489754371
3489760780
3489769264
3489773353
3489782814
3489790687
3489795021
3489803138
3489808265
3489817115
3489823646
3489830665
3489837989
3489844154
3489852333
3489856239
3489864845
3489873084
3489877296
3489882057
3489888587
3489892860
3489902015
3489907996
3489912940
3489920203
3489927406
3489932227
3489939491
3489944923
3489950050
3489957191
3489960670
3489969520
3489974342
3489979835
3489986915
3489992774
3489996680
3490003211
3490007728
3490015296
3490019813
3490025916
3490032386
3490036658
3490043311
3490050574
3490055457
3490061499
3490065894
3490072547
3490078650
3490084327
3490090796
3490097449
3490102393
3490107947
3490113318
3490118811
3490123084
3490131690
3490138587
3490143958
3490150183
3490155188
3490161048
3490165503
3490170447
3490177039
3490182532
3490187537
3490193579
3490199194
3490205603
3490210242
3490216284
3490222083
3490227148
3490233252
3490237219
3490243689
3490250403
3490255713
3490260352
3490266150
3490270972
3490278967
3490285254
3490290625
3490296606
3490303137
3490309790
3490315405
3490326574
3490334753
3490344885
3490353796
3490359717
3490366858
3490372412
3490379126
3490383642
3490390112
3490395849
3490401770
3490407934
3490414343
3490419897
3490426306
3490429663
3490437780
3490444921
3490449621
3490457189
3490462255
3490467871
3490474462
3490479040
3490487097
3490493322
3490498571
3490504492
3490510351
3490515905
3490520910
3490525854
3490532690
3490538549
3490543432
3490548925
3490554235
3490561376
3490566930
3490572729
3490579870
3490585058
3490590002
3490595678
3490600622
3490608312
3490613012
3490617895
3490624547
3490631017
3490636693
3490643468
3490647680
3490653478
3490658849
3490664892
3490670751
3490676610
3490683019
3490688573
3490692907
3490697240
3490701390
3490706029
3490710057
3490713781
3490717931
3490721898
3490725255
3490730748
3490733678
3490739171
3490743932
3490747716
3490752416
3490756749
3490760961
3490764684
3490769444
3490773778
3490779088
3490785069
3490790990
3490795995
3490800328
3490803441
3490808385
3490812657
3490817418
3490820775
3490824803
3490828648
3490833470
3490837926
3490844029
3490848058
3490852513
3490856480
3490861119
3490865086
3490870946
3490876195
3490880406
3490884862
3490889256
3490894322
3490897862
3490901768
3490908055
3490912877
3490917454
3490922520
3490927159
3490931309
3490935887
3490940403
3490944981
3490948887
3490954136
3490958775
3490963719
3490968296
3490973118
3490976780
3490981175
3490987400
3490991612
3490997044
3491002171
3491006199
3491010838
3491015171
3491019566
3491025242
3491029270
3491034825
3491039524
3491042027
3491048802
3491053684
3491057163
3491062657
3491067906
3491072117
3491077122
3491082432
3491086643
3491091038
3491096165
3491099949
3491107700
3491111912
3491115635
3491120274
3491123814
3491130039
3491135777
3491140354
3491148228
3491154087
3491160740
3491165501
3491170200
3491173618
3491178623
3491182651
3491186558
3491191440
3491196567
3491199863
3491205540
3491209873
3491214512
3491218906
3491223301
3491229038
3491233738
3491239048
3491244236
3491248935
3491253086
3491257847
3491263035
3491268589
3491272739
3491277805
3491281284
3491285312
3491291904
3491296787
3491300876
3491305149
3491310215
3491314731
3491318393
3491326572
3491331882
3491335971
3491340732
3491345798
3491350681
3491353244
3491359409
3491364108
3491368259
3491372775
3491376804
3491382907
3491387302
3491392795
3491397739
3491401279
3491407748
3491412143
3491416232
3491422336
3491427524
3491431918
3491436618
3491441196
3491445651
3491449374
3491456210
3491460666
3491465366
3491470798
3491474704
3491479159
3491487033
3491491427
3491496005
3491500583
3491507236
3491510837
3491516513
3491521884
3491527377
3491531711
3491536288
3491542697
3491548068
3491554294
3491560214
3491565280
3491570956
3491576266
3491580417
3491585421
3491589694
3491593722
3491600131
3491603671
3491609103
3491614047
3491620150
3491626681
3491631015
3491635653
3491639193
3491645236
3491651034
3491655429
3491660861
3491664340
3491670626
3491675387
3491679965
3491683871
3491687655
3491694430
3491699984
3491704379
3491709506
3491713046
3491718234
3491720858
3491727450
3491732882
3491737643
3491742464
3491746310
3491751559
3491756441
3491760897
3491766634
3491771456
3491775545
3491779818
3491785311
3491791231
3491795809
3491800081
3491806002
3491810518
3491816195
3491822054
3491827669
3491834383
3491839693
3491845858
3491850679
3491855318
3491861116
3491866060
3491872225
3491877352
3491883638
3491888643
3491895174
3491900057
3491905855
3491910677
3491917147
3491922090
3491928011
3491933687
3491939974
3491946260
3491951143
3491955721
3491963838
3491968904
3491976167
3491982393
3491987642
3491992220
3491997102
3492001314
3492008272
3492019441
3492025240
3492031831
3492036653
3492043428
3492050447
3492056490
3492063142
3492068819
3492073335
3492078584
3492084444
3492089937
3492094331
3492097688
3492106172
3492112825
3492117280
3492122835
3492127107
3492132051
3492138093
3492142488
3492149934
3492155366
3492161836
3492167817
3492172822
3492177705
3492184114
3492188935
3492196626
3492201814
3492207734
3492211457
3492218354
3492223054
3492229280
3492234162
3492240815
3492246430
3492250825
3492255586
3492261079
3492265290
3492271638
3492278169
3492280244
3492290315
3492294404
3492301606
3492308137
3492312837
3492318330
3492325654
3492331025
3492338471
3492343354
3492349274
3492356171
3492362092
3492369416
3492376374
3492381989
3492389496
3492394868
3492399140
3492407563
3492411347
3492419098
3492423432
3492429841
3492435090
3492442048
3492447724
3492453644
3492459626
3492466767
3492471711
3492479279
3492482880
3492490082
3492494110
3492502716
3492507050
3492514557
3492519745
3492526764
3492532257
3492540985
3492546662
3492551361
3492558380
3492564423
3492570892
3492578888
3492584015
3492591156
3492596466
3492602814
3492609283
3492615265
3492622040
3492629486
3492635590
3492643951
3492650726
3492656219
3492663238
3492669159
3492677338
3492685455
3492693146
3492701080
3492707672
3492714569
3492721100
3492725128
3492730316
3492734344
3492739837
3492744049
3492750763
3492753265
3492760223
3492764679
3492769256
3492774810
3492778595
3492785247
3492791412
3492795562
3492801971
3492806915
3492811126
3492815521
3492820343
3492825958
3492832000
3492836090
3492840972
3492845184
3492849945
3492855377
3492862213
3492868072
3492873748
3492878997
3492883209
3492889007
3492892791
3492898956
3492905425
3492912505
3492916595
3492922515
3492926543
3492932037
3492937896
3492944427
3492951446
3492961578
3492968108
3492976470
3492982513
3492986724
3492990691
3492999480
3493005462
3493010955
3493014800
3493018218
3493023589
3493027312
3493036467
3493042998
3493051421
3493056792
3493060881
3493065032
3493073088
3493079314
3493089812
3493096404
3493101226
3493107756
3493113372
3493122832
3493130889
3493136443
3493141631
3493148650
3493153411
3493163909
3493167265
3493173491
3493176238
3493183379
3493187590
3493199736
3493204070
3493211638
3493218474
3493222685
3493229460
3493234892
3493240202
3493244536
3493249297
3493254851
3493259856
3493265349
3493270842
3493276030
3493281218
3493286101
3493289824
3493295744
3493299406
3493304838
3493310698
3493315275
3493320341
3493324919
3493330229
3493335417
3493339384
3493345915
3493351591
3493356169
3493361845
3493366117
3493372404
3493378019
3493382292
3493387297
3493393644
3493398832
3493404325
3493409086
3493414457
3493418486
3493424284
3493428617
3493437040
3493441496
3493447660
3493453398
3493458524
3493462858
3493468778
3493475004
3493478422
3493488493
3493492521
3493498930
3493504240
3493509000
3493513944
3493520353
3493525785
3493531583
3493536405
3493543607
3493549161
3493555143
3493559782
3493566556
3493571561
3493577909
3493584928
3493589994
3493595121
3493601529
3493606412
3493612821
3493618070
3493624784
3493630643
3493637662
3493642850
3493648954
3493654325
3493658231
3493667630
3493671781
3493681485
3493685392
3493692411
3493697538
3493704373
3493711087
3493716153
3493720548
3493727384
3493733853
3493739224
3493743497
3493748929
3493754666
3493759732
3493767178
3493771146
3493781094
3493787625
3493792569
3493798245
3493803677
3493806790
3493813138
3493817776
3493824612
3493827969
3493834378
3493839688
3493845853
3493849087
3493855496
3493860745
3493865872
3493872159
3493876126
3493880520
3493885708
3493890103
3493896512
3493900906
3493907986
3493911892
3493918423
3493923184
3493928128
3493933926
3493938565
3493942715
3493948758
3493953701
3493960537
3493965115
3493972500
3493977505
3493985684
3493991360
3493998562
3494003689
3494010708
3494015225
3494019192
3494026150
3494029690
3494037808
3494041531
3494049771
3494056667
3494062588
3494067104
3494071804
3494076504
3494082913
3494087795
3494094997
3494098904
3494105618
3494111050
3494117275
3494121670
3494127346
3494131741
3494138515
3494145168
3494150600
3494155300
3494158962
3494167263
3494170803
3494178615
3494183986
3494191860
3494197902
3494204311
3494209011
3494214260
3494220607
3494226162
3494230739
3494236232
3494245571
3494250148
3494256862
3494260280
3494267055
3494271755
3494278469
3494284328
3494291408
3494298793
3494307643
3494312831
3494318935
3494325527
3494330043
3494336147
3494339565
3494347621
3494358547
3494361720
3494369838
3494375758
3494381923
3494385890
3494393459
3494396877
3494404018
3494409450
3494413051
3494417384
3494423732
3494428065
3494435329
3494440150
3494446193
3494451137
3494456630
3494461024
3494467067
3494471705
3494478725
3494484706
3494489284
3494493495
3494499965
3494504237
3494509303
3494514613
3494520778
3494524867
3494530665
3494535914
3494541346
3494545497
3494551234
3494556666
3494561305
3494567164
3494573207
3494577540
3494581568
3494588099
3494593959
3494598414
3494603114
3494610621
3494614894
3494622523
3494627406
3494631617
3494638026
3494643519
3494648402
3494656947
3494661646
3494667567
3494673548
3494678797
3494685999
3494692469
3494699183
3494704981
3494710352
3494714014
3494721644
3494725489
3494732325
3494737757
3494744593
3494749842
3494757532
3494763392
3494769556
3494774134
3494779932
3494786158
3494791224
3494796168
3494799769
3494808924
3494815394
3494820337
3494826990
3494831629
3494835230
3494842676
3494848352
3494855799
3494859888
3494866907
3494873133
3494879480
3494885828
3494892603
3494897608
3494904138
3494908960
3494915979
3494922083
3494927820
3494932581
3494936182
3494945642
3494950342
3494961389
3494965479
3494972986
3494978113
3494983484
3494987940
3494994165
3494998682
3495005212
3495011377
3495016626
3495022424
3495027124
3495032861
3495038232
3495043420
3495049402
3495055505
3495060449
3495065027
3495070825
3495076806
3495080163
3495085962
3495090722
3495097864
3495103235
3495108362
3495114343
3495120630
3495125146
3495130517
3495136255
3495141565
3495147729
3495153344
3495157922
3495161279
3495168969
3495172570
3495179589
3495184594
3495192285
3495195947
3495202905
3495208337
3495214990
3495219262
3495225915
3495230248
3495237267
3495243371
3495250024
3495254357
3495261437
3495265771
3495270654
3495276452
3495281945
3495287682
3495292504
3495298119
3495302453
3495308678
3495314294
3495319970
3495323449
3495330712
3495336144
3495346093
3495351708
3495357323
3495360924
3495366540
3495371789
3495379235
3495383874
3495390404
3495397729
3495406212
3495411217
3495416832
3495422387
3495429955
3495435509
3495442040
3495446251
3495452721
3495459374
3495465172
3495469750
3495477440
3495485314
3495490685
3495497093
3495502281
3495508324
3495510460
3495519005
3495526451
3495532372
3495542381
3495548119
3495553673
3495560021
3495566856
3495572289
3495577049
3495581505
3495585838
3495592064
3495597313
3495602684
3495608055
3495614525
3495618187
3495624412
3495629417
3495635094
3495640037
3495644859
3495651146
3495655968
3495662498
3495667076
3495672813
3495679527
3495685081
3495692772
3495696800
3495704063
3495708885
3495714683
3495721336
3495726585
3495731712
3495738426
3495743309
3495750328
3495756919
3495763389
3495768882
3495776451
3495782127
3495788902
3495792869
3495801170
3495805198
3495813438
3495816734
3495824119
3495829612
3495837242
3495842857
3495849388
3495853904
3495861717
3495865074
3495872764
3495876365
3495882896
3495887779
3495894065
3495900840
3495907249
3495909263
3495916770
3495920737
3495926902
3495930259
3495937888
3495944541
3495950339
3495955894
3495960105
3495965293
3495971091
3495977073
3495983115
3495989524
3495994224
3495999900
3496004844
3496010886
3496015525
3496022361
3496026389
3496034385
3496038047
3496044761
3496049460
3496056968
3496061728
3496069663
3496074729
3496079856
3496086508
3496092612
3496100730
3496106345
3496112570
3496122092
3496128317
3496137900
3496143332
3496149130
3496153098
3496159018
3496162558
3496171591
3496175681
3496183066
3496186423
3496192465
3496198691
3496203207
3496210043
3496215231
3496219992
3496226584
3496231161
3496238913
3496243979
3496250815
3496256003
3496261984
3496266806
3496274252
3496278647
3496284018
3496289633
3496291708
3496300253
3496303671
3496311300
3496315085
3496321982
3496327597
3496333029
3496337851
3496344931
3496349752
3496357321
3496361898
3496369162
3496373617
3496378683
3496384603
3496390158
3496394674
3496398397
3496407308
3496411337
3496418844
3496425009
3496429342
3496434286
3496440084
3496444601
3496452657
3496457174
3496463400
3496467977
3496476400
3496481466
3496488668
3496493246
3496500143
3496505270
3496512289
3496517110
3496521017
3496529562
3496533224
3496540609
3496545980
3496552877
3496558309
3496562887
3496567769
3496573995
3496580221
3496585836
3496590536
3496594137
3496603780
3496608663
3496616720
3496622823
3496629537
3496635579
3496638326
3496647847
3496655355
3496664327
3496672139
3496682943
3496693868
3496701375
3496708089
3496715230
3496721700
3496728902
3496740071
3496744771
3496754170
3496762410
3496769429
3496778645
3496787801
3496795674
3496802998
3496811543
3496819478
3496825520
3496830464
3496837117
3496843159
3496848714
3496853596
3496858479
3496864644
3496869221
3496874837
3496880879
3496887288
3496894429
3496900410
3496905537
3496913044
3496918232
3496924824
3496931477
3496937642
3496941060
3496948384
3496953083
3496960469
3496966938
3496971333
3496976094
3496981709
3496987995
3496993122
3496997395
3497004780
3497010945
3497017231
3497021748
3497027668
3497032063
3497035664
3497043110
3497049397
3497055500
3497059284
3497066303
3497070149
3497076069
3497083149
3497086994
3497093952
3497099873
3497105976
3497112019
3497116169
3497122822
3497127216
3497130634
3497138386
3497141743
3497154621
3497159748
3497165546
3497168781
3497176777
3497180317
3497187214
3497190632
3497199970
3497205219
3497210773
3497216022
3497222004
3497226459
3497232074
3497238544
3497240863
3497251178
3497258075
3497262836
3497266498
3497275165
3497278827
3497286090
3497291522
3497300312
3497306171
3497311237
3497315936
3497322345
3497328571
3497335956
3497342059
3497345661
3497355670
3497360187
3497366657
3497371906
3497377521
3497383807
3497388934
3497394855
3497401874
3497409808
3497416888
3497422015
3497427997
3497432757
3497437701
3497441913
3497448627
3497454120
3497460589
3497464923
3497471026
3497476886
3497482257
3497486712
3497493243
3497499408
3497504718
3497510516
3497514911
3497520648
3497524310
3497531329
3497534747
3497542926
3497548175
3497554827
3497559832
3497565325
3497570086
3497574542
3497580279
3497586261
3497592242
3497597430
3497601885
3497608172
3497612689
3497618243
3497624163
3497627520
3497635882
3497639666
3497646441
3497651690
3497657732
3497662615
3497668780
3497673113
3497679095
3497685381
3497690264
3497696490
3497701556
3497705828
3497712542
3497716814
3497722796
3497730791
3497737078
3497741350
3497744646
3497752825
3497758379
3497763201
3497767901
3497775164
3497780718
3497787371
3497792009
3497797869
3497802385
3497807940
3497813921
3497818682
3497825029
3497829180
3497835650
3497841814
3497846086
3497851030
3497857012
3497861956
3497869341
3497875139
3497880083
3497885393
3497891191
3497895525
3497902666
3497907427
3497912798
3497918657
3497927263
3497933122
3497939165
3497944597
3497949968
3497954912
3497962724
3497967973
3497977190
3497985429
3497991838
3497998979
3498005754
3498011613
3498016191
3498022234
3498025285
3498032243
3498037309
3498042924
3498047624
3498055192
3498058977
3498065690
3498070573
3498075761
3498080156
3498085649
3498091203
3498096208
3498105119
3498114885
3498121415
3498130876
3498138261
3498144548
3498151323
3498158525
3498165483
3498172013
3498179093
3498185502
3498192704
3498198564
3498206376
3498213700
3498220902
3498226945
3498233354
3498239884
3498246049
3498252641
3498260331
3498265946
3498272782
3498278825
3498285050
3498291032
3498296708
3498302750
3498307328
3498312394
3498316666
3498322282
3498327347
3498332169
3498336930
3498340897
3498347428
3498351761
3498356217
3498360795
3498364762
3498369950
3498374955
3498380509
3498385819
3498389664
3498393754
3498398575
3498403397
3498408585
3498413224
3498417313
3498421586
3498425675
3498432267
3498437577
3498443070
3498447220
3498451554
3498455643
3498463089
3498468155
3498474198
3498478775
3498483658
3498488236
3498492874
3498497757
3498501541
3498508316
3498514176
3498520889
3498524857
3498530777
3498535599
3498539627
3498544510
3498549820
3498553787
3498559342
3498563553
3498568253
3498573563
3498578262
3498582657
3498587601
3498591690
3498596817
3498601334
3498605423
3498610611
3498615799
3498621170
3498626419
3498631302
3498637405
3498642105
3498647293
3498653580
3498658890
3498665542
3498668655
3498676590
3498680801
3498685989
3498692459
3498696365
3498700149
3498707657
3498713272
3498719192
3498724624
3498729080
3498732376
3498739517
3498745498
3498750686
3498754348
3498762222
3498765579
3498772232
3498776992
3498781204
3498786148
3498794509
3498798538
3498805129
3498809890
3498815139
3498819656
3498824783
3498831130
3498838271
3498843643
3498849014
3498853286
3498860427
3498865249
3498872573
3498877456
3498883681
3498890517
3498894302
3498900771
3498906570
3498913039
3498916457
3498922744
3498927444
3498934524
3498939712
3498947585
3498951613
3498957290
3498962722
3498967116
3498972854
3498978652
3498990920
3498996779
3499001296
3499005751
3499012099
3499015578
3499023024
3499029860
3499036696
3499040908
3499050307
3499057021
3499063308
3499069045
3499075820
3499080947
3499086745
3499091933
3499098647
3499103469
3499110304
3499116042
3499121779
3499126418
3499134108
3499138625
3499145522
3499150221
3499156447
3499161147
3499164748
3499174452
3499179701
3499185072
3499189040
3499194655
3499197646
3499204665
3499210036
3499216688
3499220473
3499227248
3499232252
3499238417
3499243178
3499249281
3499254103
3499260573
3499266005
3499271803
3499276747
3499283217
3499287977
3499292677
3499298842
3499304884
3499311537
3499315321
3499321669
3499327162
3499332960
3499337904
3499343397
3499349684
3499356886
3499361280
3499367933
3499374281
3499378919
3499386305
3499392042
3499397169
3499406202
3499411390
3499417372
3499423414
3499430189
3499435194
3499441297
3499447645
3499454298
3499461500
3499468397
3499473096
3499477918
3499484327
3499487989
3499495802
3499499708
3499506971
3499513196
3499518384
3499523572
3499528516
3499534681
3499539381
3499543714
3499550367
3499556348
3499561292
3499567212
3499572339
3499576734
3499580091
3499588758
3499595350
3499601941
3499605787
3499613538
3499617322
3499623914
3499628797
3499634351
3499639234
3499648450
3499654676
3499662122
3499665540
3499674817
3499678235
3499684522
3499689343
3499696790
3499701856
3499708692
3499713574
3499719983
3499725659
3499731580
3499736890
3499741589
3499747266
3499753857
3499758130
3499764050
3499768567
3499774121
3499780042
3499783459
3499791455
3499795850
3499801831
3499807690
3499812146
3499817029
3499823193
3499827893
3499834729
3499839856
3499845715
3499850720
3499857007
3499863171
3499867383
3499873242
3499879895
3499884411
3499891675
3499896069
3499901257
3499907177
3499911145
3499917370
3499920727
3499929882
3499935009
3499939465
3499945752
3499950878
3499956677
3499961315
3499966748
3499973217
3499978588
3499985729
3499989514
3499997814
3500001721
3500009045
3500012646
3500021252
3500025585
3500031872
3500037121
3500043346
3500048290
3500053783
3500060009
3500065746
3500072338
3500077709
3500082348
3500088451
3500093212
3500098461
3500105541
3500110790
3500117443
3500124645
3500130138
3500135082
3500143139
3500149242
3500158092
3500163708
3500171703
3500177562
3500188976
3500193554
3500202770
3500207164
3500215465
3500219432
3500228893
3500236644
3500241649
3500245372
3500255443
3500260082
3500268505
3500273815
3500280040
3500285289
3500290538
3500296825
3500301891
3500306163
3500312206
3500316661
3500321849
3500327953
3500334361
3500339000
3500342296
3500349986
3500353587
3500359874
3500364635
3500373546
3500378734
3500384593
3500389598
3500395335
3500399730
3500405467
3500411204
3500415904
3500421886
3500428172
3500432689
3500438975
3500443309
3500449290
3500453563
3500458446
3500465953
3500471080
3500477672
3500483104
3500488658
3500492991
3500498301
3500503978
3500513865
3500521128
3500526744
3500531260
3500537791
3500542247
3500548899
3500554209
3500559703
3500567332
3500571116
3500579478
3500584361
3500590159
3500594554
3500600230
3500603831
3500613535
3500617320
3500624400
3500628123
3500634837
3500639597
3500646433
3500651255
3500657908
3500663035
3500668772
3500673594
3500680308
3500684458
3500690440
3500696421
3500700938
3500707957
3500714426
3500718943
3500724497
3500728831
3500733774
3500740305
3500745310
3500751475
3500756540
3500761973
3500768015
3500772715
3500779184
3500785532
3500791452
3500799326
3500804453
3500810251
3500815622
3500820871
3500825571
3500831125
3500837534
3500841379
3500851633
3500856638
3500866098
3500877817
3500884348
3500890085
3500899729
3500904794
3500911203
3500916391
3500922678
3500928598
3500933420
3500938852
3500943186
3500949472
3500955209
3500959909
3500965707
3500970346
3500976266
3500979745
3500986887
3500990243
3500998544
3501002267
3501009531
3501014902
3501021005
3501026254
3501031503
3501036264
3501042673
3501047372
3501052987
3501058908
3501064462
3501068857
3501074472
3501080758
3501084359
3501092233
3501098214
3501104074
3501109262
3501114999
3501119882
3501124215
3501130075
3501135751
3501142343
3501147348
3501153024
3501156747
3501165048
3501168527
3501175729
3501181222
3501188729
3501194589
3501200753
3501206307
3501212350
3501218087
3501223824
3501228158
3501232491
3501240060
3501245675
3501251656
3501256600
3501260934
3501265694
3501271432
3501276253
3501283517
3501288644
3501295357
3501300667
3501305245
3501311471
3501316781
3501321297
3501327401
3501334176
3501339120
3501344857
3501348214
3501355355
3501358956
3501366097
3501369637
3501378121
3501383553
3501390206
3501397042
3501400460
3501406807
3501410958
3501416756
3501421639
3501427925
3501433968
3501439827
3501445076
3501450692
3501456368
3501463143
3501467903
3501476387
3501480049
3501486763
3501491829
3501497444
3501502266
3501507454
3501511910
3501518685
3501524971
3501530830
3501535103
3501540413
3501546211
3501550423
3501556099
3501560982
3501569649
3501573616
3501580513
3501586128
3501591194
3501596199
3501601143
3501605598
3501611397
3501617317
3501623482
3501628059
3501633003
3501638740
3501642219
3501649421
3501652778
3501661567
3501667427
3501671821
3501676521
3501682747
3501687507
3501692512
3501698982
3501702949
3501708748
3501715278
3501719673
3501726936
3501732490
3501741279
3501747383
3501754402
3501761055
3501768623
3501774177
3501780281
3501787055
3501789497
3501799079
3501803047
3501812019
3501818977
3501823310
3501828071
3501833503
3501838264
3501844062
3501848762
3501856208
3501859809
3501867194
3501870918
3501877753
3501881293
3501887763
3501890998
3501901679
3501906684
3501912726
3501918464
3501923713
3501930610
3501935859
3501939765
3501947944
3501957160
3501963386
3501968451
3501975959
3501982428
3501989997
3501996589
3502003669
3502014167
3502019904
3502028632
3502035224
3502042548
3502049262
3502054267
3502063422
3502070075
3502072943
3502088996
3502092352
3502105841
3502113959
3502121283
3502128546
3502136176
3502142218
3502151434
3502157111
3502161322
3502169562
3502173834
3502182074
3502188666
3502192999
3502199347
3502206427
3502212897
3502217230
3502220709
3502228522
3502234076
3502238653
3502243414
3502250189
3502255377
3502261297
3502266058
3502272162
3502276312
3502282721
3502287298
3502294073
3502300116
3502306402
3502310736
3502316412
