3562411778
3562417638
3562422459
3562427525
3562434117
3562438206
3562443577
3562448399
3562453343
3562458592
3562463048
3562468236
3562473362
3562478062
3562483250
3562488804
3562496312
3562500645
3562505223
3562511692
3562518162
3562524205
3562532505
3562536961
3562543492
3562547947
3562556126
3562563511
3562570103
3562575474
3562582798
3562587437
3562597080
3562604344
3562615025
3562626865
3562639744
3562647862
3562654575
3562663364
3562668797
3562678135
3562685398
3562692722
3562700474
3562708164
3562715916
3562723057
3562729343
3562737278
3562744480
3562751926
3562760715
3562767429
3562774448
3562784885
3562792087
3562799228
3562806980
3562814914
3562822422
3562833652
3562841342
3562849033
3562856479
3562864047
3562871677
3562883090
3562890964
3562899204
3562907932
3562915256
3562923007
3562932040
3562941379
3562948459
3562956577
3562964145
3562971042
3562978366
3562988010
3562995395
3563002353
3563010348
3563015658
3563027804
3563035617
3563041415
3563052463
3563059543
3563066928
3563074740
3563082797
3563090365
3563099521
3563105258
3563113009
3563119845
3563128695
3563137912
3563146273
3563154025
3563162203
3563167330
3563175204
3563182833
3563190096
3563196017
3563205477
3563213168
3563220492
3563227694
3563239962
3563247836
3563257906
3563267123
3563275362
3563282931
3563291292
3563300875
3563308504
3563315768
3563323580
3563330355
3563341891
3563350008
3563360262
3563368197
3563376436
3563384432
3563394686
3563403353
3563411776
3563418428
3563425692
3563433443
3563439974
3563447786
3563456270
3563463838
3563470552
3563478548
3563495699
3563501802
3563511202
3563516329
3563525301
3563532991
3563540804
3563546907
3563555025
3563563875
3563570589
3563577303
3563584688
3563591890
3563597444
3563604707
3563615083
3563620210
3563628633
3563636262
3563643220
3563650178
3563656953
3563664522
3563670381
3563678682
3563684358
3563692048
3563697908
3563706147
3563715730
3563723298
3563730928
3563736665
3563743562
3563749665
3563758271
3563764985
3563773347
3563782197
3563787202
3563795442
3563800935
3563812592
3563820039
3563830354
3563837800
3563846528
3563854890
3563862641
3563870026
3563878999
3563886689
3563894562
3563903413
3563910981
3563917573
3563928864
3563936616
3563944550
3563951386
3563958161
3563967988
3563976105
3563984040
3563990509
3563996613
3564005646
3564011322
3564020172
3564030487
3564036957
3564044281
3564052399
3564059662
3564069611
3564076813
3564082672
3564091828
3564098908
3564105805
3564113068
3564119049
3564137665
3564145782
3564155060
3564163300
3564170502
3564179779
3564188873
3564197174
3564204193
3564211578
3564218902
3564226349
3564234100
3564242828
3564249847
3564256927
3564264923
3564273468
3564280304
3564288787
3564296295
3564303619
3564310211
3564316803
3564324554
3564331207
3564340484
3564347076
3564354949
3564362152
3564368682
3564378082
3564385650
3564393646
3564399383
3564407256
3564415008
3564421478
3564430206
3564439056
3564447417
3564454620
3564460479
3564470611
3564482879
3564493194
3564504363
3564513152
3564519195
3564529449
3564538360
3564545684
3564555388
3564561248
3564570708
3564577605
3564585234
3564595000
3564602263
3564609038
3564616484
3564623748
3564629546
3564638335
3564644255
3564654265
3564661040
3564669158
3564675444
3564681487
3564688689
3564693266
3564701262
3564707732
3564713103
3564718535
3564725676
3564730742
3564738493
3564742033
3564750517
3564757353
3564763029
3564768095
3564774199
3564782072
3564788542
3564793608
3564801237
3564805998
3564812163
3564817473
3564823698
3564827971
3564832365
3564840239
3564843718
3564850615
3564855681
3564860746
3564866301
3564871977
3564879057
3564884794
3564890226
3564895842
3564900785
3564905180
3564911467
3564915922
3564924101
3564928373
3564933561
3564938871
3564943998
3564950224
3564954191
3564961149
3564967192
3564972013
3564977567
3564983244
3564987577
3564993742
3564998136
3565004484
3565010343
3565015409
3565020719
3565025968
3565030912
3565036222
3565042631
3565048856
3565053922
3565058195
3565064664
3565068998
3565075529
3565080656
3565087186
3565092557
3565097745
3565103971
3565109586
3565115812
3565122098
3565130155
3565136747
3565141996
3565147123
3565152372
3565158475
3565163968
3565172513
3565179960
3565186918
3565195340
3565203275
3565210538
3565217740
3565225858
3565234708
3565243192
3565250882
3565258878
3565265531
3565273770
3565281583
3565289334
3565294827
3565300198
3565306973
3565312589
3565319363
3565327176
3565332913
3565338406
3565344327
3565349515
3565358121
3565364896
3565370328
3565376126
3565382168
3565387845
3565393582
3565400357
3565406033
3565412137
3565417508
3565422635
3565428433
3565434292
3565439236
3565446682
3565449612
3565457303
3565462430
3565467556
3565472866
3565478543
3565484524
3565490017
3565495144
3565499722
3565505703
3565509915
3565516690
3565522854
3565528103
3565534634
3565540615
3565546902
3565551541
3565559963
3565565579
3565570767
3565576504
3565581814
3565587124
3565592678
3565598721
3565603665
3565609890
3565614285
3565620266
3565625149
3565631557
3565638943
3565644802
3565652248
3565659145
3565665798
3565669277
3565677944
3565683315
3565688869
3565695156
3565699489
3565706447
3565709377
3565716396
3565722805
3565728664
3565734646
3565740139
3565745998
3565750332
3565755886
3565761440
3565768581
3565772182
3565778530
3565784206
3565789638
3565792751
3565800014
3565803859
3565813381
3565818813
3565824489
3565829555
3565834804
3565841640
3565846645
3565854579
3565860256
3565866054
3565871059
3565875636
3565882778
3565888210
3565893703
3565899928
3565903713
3565910426
3565914333
3565920863
3565925380
3565933315
3565936671
3565944179
3565947231
3565954921
3565959926
3565964992
3565971217
3565976894
3565983119
3565987575
3565993190
3565997645
3566003627
3566010097
3566016566
3566021632
3566026820
3566032313
3566037623
3566043117
3566048243
3566052760
3566059718
3566064967
3566070643
3566075709
3566079921
3566085414
3566089869
3566096949
3566102870
3566107936
3566110926
3566118861
3566124232
3566129481
3566135768
3566141444
3566147486
3566152125
3566159571
3566164393
3566171839
3566175013
3566184229
3566190821
3566196314
3566202601
3566207240
3566212000
3566217982
3566224879
3566229823
3566234034
3566239771
3566243800
3566249964
3566255152
3566260584
3566266444
3566271509
3566277186
3566282618
3566287928
3566292322
3566299036
3566304102
3566310084
3566315088
3566320399
3566325953
3566331019
3566337061
3566342371
3566349634
3566353968
3566359949
3566365198
3566370020
3566376246
3566383509
3566388514
3566393396
3566398584
3566403833
3566409571
3566413965
3566421656
3566425257
3566431726
3566436914
3566442041
3566447412
3566452661
3566459619
3566465357
3566470789
3566475122
3566480493
3566486109
3566492273
3566497400
3566502527
3566509241
3566514612
3566519922
3566525232
3566530786
3566536096
3566541589
3566547266
3566552515
3566558130
3566563196
3566569360
3566573633
3566577966
3566586694
3566591760
3566597009
3566602075
3566607324
3566612878
3566618005
3566624353
3566630334
3566635583
3566640100
3566646203
3566650659
3566656884
3566662317
3566668542
3566674951
3566680627
3566686792
3566693017
3566697778
3566703088
3566708886
3566713586
3566719689
3566724694
3566729516
3566735009
3566740075
3566745812
3566751184
3566757592
3566763268
3566768456
3566772973
3566778771
3566783044
3566791589
3566795129
3566801293
3566807580
3566812768
3566818078
3566823693
3566829369
3566835290
3566841210
3566845422
3566851708
3566855920
3566862939
3566870202
3566875695
3566881127
3566886376
3566891137
3566896325
3566900719
3566905785
3566913109
3566918236
3566923302
3566928307
3566932946
3566939110
3566943200
3566950036
3566955529
3566960595
3566965661
3566970726
3566976342
3566981774
3566988549
3566992882
3566999474
3567005028
3567010399
3567016014
3567021324
3567027184
3567032677
3567038109
3567043602
3567048851
3567053246
3567059410
3567066185
3567071373
3567076256
3567081322
3567086693
3567091820
3567097435
3567103111
3567108788
3567113854
3567120811
3567125816
3567132103
3567135216
3567141869
3567147301
3567154076
3567158836
3567164024
3567170738
3567177086
3567182884
3567187523
3567194664
3567200584
3567207237
3567212181
3567218040
3567222130
3567227073
3567234031
3567239341
3567245872
3567248619
3567256004
3567261192
3567266258
3567271080
3567276695
3567281883
3567287498
3567292991
3567297142
3567303184
3567307518
3567314231
3567320884
3567326255
3567330528
3567335838
3567341087
3567346214
3567352867
3567358543
3567365806
3567370872
3567376853
3567382713
3567387412
3567393272
3567398765
3567404136
3567408530
3567415244
3567422202
3567427818
3567436179
3567441856
3567447166
3567453818
3567458884
3567464133
3567469382
3567473289
3567479819
3567486716
3567492454
3567497275
3567502707
3567508445
3567512900
3567520408
3567526267
3567531516
3567536887
3567540732
3567547141
3567552573
3567557395
3567563315
3567569358
3567573630
3567578757
3567582969
3567589377
3567593650
3567603293
3567608542
3567613608
3567618430
3567623557
3567629294
3567633383
3567640830
3567645407
3567651877
3567656882
3567664450
3567671103
3567677146
3567682639
3567687583
3567695334
3567702414
3567708456
3567714011
3567717978
3567725363
3567729880
3567736533
3567741476
3567745627
3567751486
3567755392
3567762533
3567767294
3567772116
3567777548
3567782614
3567787253
3567792441
3567798605
3567803488
3567809714
3567815268
3567820456
3567825522
3567830832
3567836569
3567842306
3567848349
3567854086
3567858969
3567864523
3567870688
3567875814
3567884054
3567889181
3567894003
3567898642
3567903463
3567909323
3567914511
3567920980
3567926229
3567931539
3567936544
3567941915
3567947409
3567952658
3567959310
3567964865
3567970175
3567975301
3567980184
3567985311
3567990499
3567995992
3568002950
3568007589
3568013815
3568018880
3568023885
3568028829
3568034139
3568040182
3568045858
3568051961
3568057516
3568062704
3568068380
3568073446
3568078939
3568085042
3568089315
3568097433
3568101827
3568107076
3568112630
3568117696
3568123861
3568129659
3568134725
3568139119
3568145833
3568150411
3568157064
3568162435
3568168172
3568171651
3568178731
3568185262
3568189473
3568196187
3568202169
3568208394
3568213704
3568220357
3568226033
3568231343
3568236409
3568241658
3568247212
3568252950
3568260152
3568265767
3568270772
3568276448
3568281209
3568286763
3568292561
3568297444
3568303914
3568306905
3568313435
3568319356
3568324727
3568329976
3568335347
3568342305
3568348103
3568353413
3568357869
3568363118
3568368672
3568375020
3568381367
3568387166
3568394246
3568399739
3568404133
3568409199
3568416035
3568421528
3568427937
3568432820
3568438130
3568443806
3568447834
3568454609
3568460408
3568467427
3568473835
3568479634
3568486042
3568492085
3568497212
3568503865
3568509297
3568514485
3568520710
3568523884
3568531758
3568538532
3568544026
3568550312
3568556233
3568561176
3568566792
3568571858
3568576252
3568583271
3568588764
3568593891
3568596882
3568605061
3568609821
3568614887
3568620930
3568626423
3568632282
3568637836
3568642414
3568647846
3568653461
3568657978
3568666279
3568669636
3568676350
3568681293
3568686542
3568692524
3568697834
3568702595
3568708942
3568715717
3568721760
3568728901
3568735065
3568741352
3568744587
3568752887
3568757526
3568762897
3568770343
3568774921
3568781147
3568787067
3568792194
3568797199
3568801899
3568808612
3568813068
3568818866
3568823139
3568830402
3568834735
3568842426
3568846027
3568852252
3568858112
3568863239
3568869342
3568875385
3568880145
3568885883
3568891864
3568896259
3568902118
3568907062
3568915912
3568920917
3568926227
3568930926
3568936053
3568941180
3568945148
3568952899
3568957904
3568962726
3568967975
3568973346
3568978168
3568983539
3568988605
3568994708
3569000445
3569006549
3569011859
3569017657
3569023456
3569029925
3569032977
3569041217
3569045611
3569051898
3569056781
3569061908
3569067340
3569073016
3569079608
3569084246
3569090594
3569095111
3569101214
3569105487
3569113299
3569119342
3569124591
3569129962
3569135150
3569140093
3569145098
3569149798
3569156817
3569161639
3569165972
3569173358
3569178362
3569184832
3569188311
3569197649
3569203692
3569210589
3569217059
3569222918
3569230730
3569237749
3569243548
3569250750
3569255205
3569263323
3569269182
3569274554
3569280779
3569286700
3569292559
3569298235
3569303484
3569307757
3569314470
3569317461
3569324907
3569330278
3569334978
3569340044
3569345293
3569350664
3569354509
3569362505
3569365679
3569372698
3569377275
3569382341
3569387651
3569392412
3569399065
3569403520
3569411516
3569419695
3569425310
3569430925
3569435442
3569442827
3569448259
3569452898
3569459001
3569464189
3569468767
3569473894
3569480425
3569484880
3569490434
3569494951
3569500322
3569506364
3569511186
3569515886
3569522417
3569527544
3569531633
3569537614
3569542985
3569547807
3569553422
3569558671
3569564958
3569570329
3569574907
3569578935
3569584672
3569590776
3569595964
3569601518
3569606828
3569612443
3569617753
3569623369
3569628862
3569635087
3569640764
3569647111
3569653886
3569661821
3569667802
3569673356
3569679765
3569684159
3569692399
3569703141
3569716264
3569723100
3569729020
3569733476
3569740983
3569748002
3569754350
3569759965
3569768083
3569774064
3569780473
3569785966
3569790788
3569797990
3569804520
3569810136
3569814957
3569821000
3569829606
3569834122
3569840409
3569845719
3569853226
3569859269
3569865311
3569871781
3569877396
3569883378
3569888871
3569893693
3569899308
3569906937
3569911698
3569918412
3569923234
3569930253
3569935135
3569941788
3569947464
3569956681
3569962784
3569966996
3569973648
3569979325
3569985184
3569991349
3569997330
3570001969
3570009476
3570012772
3570020401
3570023941
3570031265
3570038590
3570044205
3570049210
3570054947
3570061234
3570067215
3570072342
3570078446
3570085098
3570089737
3570097061
3570101700
3570108597
3570113968
3570119522
3570124954
3570130753
3570136673
3570142410
3570148819
3570154373
3570160599
3570164932
3570172256
3570176346
3570184280
3570188919
3570195694
3570199051
3570207718
3570213760
3570219314
3570225540
3570234573
3570240738
3570244339
3570252456
3570258743
3570264541
3570269973
3570275528
3570281814
3570290542
3570296951
3570303787
3570311477
3570318130
3570324356
3570329727
3570336318
3570340286
3570348342
3570352798
3570359145
3570363479
3570369766
3570375198
3570381423
3570389602
3570395339
3570402541
3570406936
3570412856
3570419448
3570424514
3570431045
3570435866
3570442275
3570446120
3570451919
3570456313
3570462478
3570467910
3570474685
3570481093
3570487990
3570494765
3570500197
3570506423
3570512221
3570517287
3570522841
3570527785
3570534011
3570538527
3570545607
3570551650
3570557265
3570562209
3570567702
3570573561
3570579482
3570586135
3570591628
3570597426
3570603713
3570609633
3570616408
3570621352
3570628493
3570636183
3570641799
3570647841
3570653090
3570659499
3570665663
3570668532
3570677748
3570685011
3570689833
3570695937
3570702467
3570707472
3570716078
3570721938
3570728102
3570734633
3570740248
3570746168
3570754469
3570759474
3570766005
3570772352
3570778090
3570784804
3570790114
3570799452
3570805250
3570811415
3570817762
3570824354
3570828932
3570835646
3570842421
3570848341
3570853468
3570858534
3570864454
3570870314
3570876417
3570881300
3570886793
3570892713
3570898512
3570904066
3570909437
3570915541
3570922682
3570927992
3570933180
3570938429
3570944044
3570950025
3570956129
3570961378
3570967603
3570972669
3570980787
3570987257
3570992323
3570998487
3571004652
3571010267
3571015882
3571021925
3571027967
3571033826
3571039320
3571046155
3571050733
3571056898
3571062757
3571067579
3571072278
3571078626
3571084058
3571089307
3571095350
3571100599
3571105665
3571111646
3571118238
3571123792
3571130140
3571135083
3571142469
3571147718
3571153272
3571160230
3571168775
3571174634
3571179700
3571185620
3571190686
3571198011
3571204480
3571209668
3571215344
3571221326
3571226697
3571233228
3571238721
3571245007
3571250623
3571258557
3571264844
3571272168
3571279920
3571285413
3571290601
3571297009
3571302808
3571309338
3571313916
3571321362
3571326367
3571331189
3571336804
3571342053
3571348523
3571352978
3571358960
3571364453
3571369153
3571374646
3571379223
3571385632
3571391308
3571397168
3571401806
3571406567
3571412488
3571417309
3571422619
3571428296
3571434460
3571444470
3571450146
3571455639
3571461926
3571467419
3571473400
3571479382
3571484021
3571491101
3571497265
3571502270
3571507946
3571513500
3571518627
3571525768
3571530651
3571538769
3571544628
3571549572
3571555981
3571561169
3571568005
3571572338
3571580578
3571585033
3571591686
3571597240
3571602673
3571607311
3571613964
3571619701
3571625194
3571630932
3571636486
3571641796
3571647594
3571653454
3571659069
3571664989
3571669079
3571676708
3571682934
3571688000
3571693065
3571699779
3571704906
3571710094
3571714428
3571723522
3571730419
3571735729
3571742870
3571748607
3571754589
3571761852
3571766429
3571773143
3571778698
3571783702
3571789318
3571795116
3571801219
3571806224
3571811473
3571817272
3571821727
3571828868
3571835460
3571840709
3571846019
3571852306
3571858043
3571863414
3571869029
3571875560
3571880565
3571887218
3571892040
3571898326
3571903758
3571913585
3571919383
3571924632
3571929454
3571934520
3571940501
3571947276
3571952464
3571958018
3571964122
3571969615
3571974254
3571980418
3571986033
3571991404
3571997752
3572003245
3572008738
3572013072
3572020152
3572026500
3572032054
3572038646
3572042491
3572050792
3572055980
3572062388
3572067271
3572072520
3572079356
3572084849
3572091563
3572097605
3572102122
3572107127
3572112864
3572118662
3572125681
3572130808
3572136424
3572142649
3572146922
3572153819
3572158152
3572165720
3572171214
3572175547
3572181712
3572188487
3572194468
3572202830
3572209849
3572216502
3572222239
3572226633
3572232798
3572238779
3572245310
3572250071
3572255259
3572261057
3572266916
3572272227
3572278391
3572285715
3572291086
3572296641
3572302866
3572308359
3572313486
3572318796
3572324289
3572331553
3572336741
3572340769
3572346140
3572352182
3572356943
3572359873
3572368051
3572373850
3572379099
3572386667
3572391245
3572397104
3572402414
3572407480
3572414072
3572417612
3572423837
3572429514
3572434030
3572438059
3572445261
3572451425
3572456613
3572462106
3572466257
3572471323
3572477243
3572483163
3572488779
3572493356
3572498605
3572503732
3572508493
3572513620
3572518930
3572524972
3572529794
3572534311
3572539011
3572543893
3572549814
3572555246
3572560739
3572566842
3572570871
3572576547
3572580514
3572587106
3572592172
3572597299
3572603769
3572608957
3572613473
3572617502
3572624276
3572629586
3572634958
3572640023
3572644723
3572649850
3572655038
3572661447
3572665414
3572672189
3572676950
3572685006
3572691415
3572697763
3572704965
3572709542
3572717599
3572722787
3572726998
3572733468
3572737740
3572744271
3572747262
3572755074
3572760445
3572766305
3572773385
3572777963
3572783517
3572790231
3572794869
3572799996
3572805550
3572810616
3572816842
3572823251
3572828316
3572833993
3572839059
3572845101
3572850655
3572855111
3572864022
3572870186
3572875374
3572880562
3572884224
3572891793
3572898079
3572903817
3572908455
3572913887
3572919198
3572924202
3572928414
3572935555
3572941658
3572945870
3572952706
3572957344
3572962654
3572969612
3572974495
3572980110
3572985543
3572991768
3572997689
3573003609
3573009957
3573014961
3573020943
3573025459
3573032112
3573038155
3573043831
3573049324
3573054146
3573061775
3573067085
3573072456
3573077827
3573084358
3573089729
3573095039
3573099129
3573105965
3573111092
3573115425
3573122139
3573127449
3573133430
3573139595
3573146004
3573151985
3573157905
3573164802
3573170723
3573173775
3573180916
3573186653
3573192329
3573197395
3573203193
3573208442
3573214363
3573220955
3573225959
3573232185
3573237739
3573242927
3573247444
3573252510
3573258613
3573264595
3573269905
3573275703
3573280708
3573287117
3573291755
3573297737
3573302803
3573309577
3573315437
3573320442
3573327644
3573332527
3573337776
3573343818
3573349067
3573354255
3573359626
3573367133
3573372504
3573377815
3573383552
3573386848
3573393989
3573401130
3573406135
3573413459
3573418281
3573423896
3573429694
3573435187
3573441230
3573448005
3573453376
3573458320
3573463447
3573469550
3573476203
3573482062
3573486091
3573492682
3573497504
3573502448
3573508551
3573514167
3573519416
3573526374
3573530646
3573538153
3573544745
3573550238
3573555243
3573562506
3573567450
3573572394
3573578498
3573583930
3573590094
3573595893
3573605719
3573611090
3573617743
3573624030
3573629218
3573635382
3573640936
3573646430
3573650824
3573658209
3573664313
3573669440
3573675360
3573681281
3573686896
3573691168
3573696783
3573701483
3573708624
3573713751
3573718939
3573725531
3573730780
3573736334
3573740301
3573747504
3573751898
3573758429
3573762762
3573768866
3573773138
3573779364
3573786017
3573793036
3573799566
3573805182
3573809820
3573815313
3573821356
3573825750
3573833136
3573837957
3573843023
3573849310
3573854559
3573859686
3573864752
3573869818
3573875433
3573882635
3573888372
3573893377
3573898443
3573903692
3573910223
3573916143
3573921270
3573926214
3573931097
3573937139
3573942449
3573949041
3573953924
3573959417
3573964727
3573969793
3573976019
3573981207
3573988103
3573994268
3573999639
3574004400
3574009588
3574016485
3574021184
3574029790
3574035284
3574041326
3574045659
3574052923
3574059087
3574064214
3574069219
3574074773
3574080755
3574086736
3574092351
3574096624
3574104131
3574111699
3574118169
3574125249
3574130986
3574136358
3574141729
3574147283
3574153569
3574158086
3574165166
3574170354
3574175481
3574181096
3574186223
3574193242
3574197515
3574203313
3574207707
3574214726
3574220464
3574225469
3574231084
3574236394
3574241338
3574246709
3574253545
3574257817
3574263127
3574268987
3574275517
3574281499
3574286992
3574292851
3574299748
3574306035
3574310429
3574316777
3574321110
3574328557
3574334111
3574339360
3574343877
3574350285
3574356022
3574361333
3574366826
3574371098
3574377812
3574382817
3574388920
3574395024
3574400334
3574406987
3574412358
3574416996
3574421452
3574428410
3574435551
3574442692
3574448613
3574453373
3574458317
3574464421
3574469670
3574474858
3574480961
3574485966
3574491947
3574496891
3574502323
3574507755
3574514408
3574519840
3574524906
3574530216
3574535710
3574541935
3574544743
3574553043
3574557926
3574562809
3574568852
3574575260
3574580204
3574585880
3574591190
3574598209
3574604069
3574609806
3574614750
3574620792
3574625736
3574632816
3574639469
3574643314
3574649906
3574655643
3574661381
3574665714
3574671818
3574676029
3574683292
3574688907
3574694156
3574699405
3574704593
3574710025
3574715030
3574720279
3574725895
3574731022
3574736576
3574741703
3574748294
3574754886
3574759891
3574765079
3574770206
3574775333
3574781681
3574787845
3574793521
3574804202
3574808658
3574814884
3574819217
3574825443
3574829654
3574836307
3574842532
3574847720
3574853153
3574858218
3574864017
3574870181
3574876468
3574880801
3574887698
3574892703
3574897830
3574904300
3574909915
3574916080
3574920596
3574928531
3574934512
3574940127
3574945132
3574950809
3574957522
3574963565
3574968814
3574974795
3574979617
3574985598
3574990542
3574996829
3575003421
3575009646
3575015017
3575020633
3575029483
3575036197
3575041507
3575048892
3575054812
3575059024
3575066165
3575072573
3575077944
3575085635
3575091738
3575097354
3575104128
3575109133
3575115176
3575122073
3575130435
3575135073
3575141665
3575147036
3575152102
3575156680
3575163210
3575168154
3575174014
3575179018
3575185488
3575189761
3575197878
3575205447
3575211367
3575216616
3575223818
3575229922
3575235415
3575241640
3575248232
3575253420
3575258486
3575263796
3575268923
3575275454
3575281496
3575287600
3575291811
3575298281
3575303591
3575311647
3575317507
3575322451
3575328615
3575333742
3575338442
3575343569
3575349184
3575353945
3575360659
3575365908
3575371218
3575377199
3575382936
3575387148
3575392275
3575399660
3575402834
3575408998
3575415285
3575420107
3575425417
3575430116
3575435732
3575441469
3575447450
3575452150
3575459657
3575466066
3575472414
3575477968
3575483949
3575489137
3575495424
3575500673
3575505067
3575511354
3575516969
3575522401
3575525941
3575534303
3575538637
3575543703
3575550172
3575554140
3575561403
3575565797
3575573366
3575579103
3575584596
3575591737
3575595887
3575603822
3575608583
3575614930
3575621461
3575627137
3575634217
3575640382
3575647950
3575650941
3575658815
3575663636
3575669496
3575675416
3575679566
3575687074
3575692201
3575697206
3575702455
3575707643
3575713319
3575718873
3575725099
3575730042
3575737672
3575741029
3575749757
3575755555
3575761475
3575768006
3575772462
3575779176
3575785523
3575790711
3575796021
3575801209
3575806641
3575814027
3575820618
3575826356
3575831788
3575835999
3575841492
3575846375
3575852845
3575858765
3575864014
3575869629
3575873536
3575878724
3575884705
3575891297
3575894715
3575901551
3575907410
3575913453
3575918763
3575922669
3575928955
3575934937
3575941101
3575945313
3575951355
3575955567
3575961365
3575965760
3575973145
3575979065
3575984192
3575989136
3575994385
3575999390
3576004578
3576010742
3576017151
3576023804
3576029968
3576035339
3576041443
3576047424
3576053162
3576059265
3576065247
3576070007
3576075989
3576081055
3576088074
3576091003
3576100342
3576105774
3576111633
3576117615
3576121887
3576130005
3576133423
3576143616
3576151977
3576158569
3576165344
3576170715
3576175415
3576181640
3576186645
3576192138
3576196716
3576204467
3576208130
3576214782
3576220276
3576227478
3576232238
3576237732
3576242004
3576247192
3576253906
3576256835
3576266418
3576270874
3576276184
3576282714
3576287292
3576294311
3576300109
3576305541
3576311279
3576317138
3576324157
3576331298
3576337524
3576342162
3576347900
3576351318
3576358337
3576363891
3576367309
3576374328
3576379821
3576384887
3576390258
3576395629
3576401122
3576406798
3576412963
3576417602
3576423217
3576428222
3576435119
3576440612
3576446715
3576452575
3576458068
3576464293
3576469665
3576476989
3576483275
3576487853
3576494017
3576497619
3576502807
3576509032
3576514098
3576519286
3576525084
3576530333
3576536803
3576539550
3576547362
3576552672
3576557189
3576564940
3576573485
3576578063
3576586974
3576593016
3576598509
3576605345
3576612670
3576618285
3576625975
3576631896
3576637572
3576644347
3576649962
3576655150
3576661620
3576668517
3576675780
3576681578
3576686400
3576691710
3576696715
3576705382
3576712462
3576717039
3576721800
3576728026
3576732298
3576738890
3576745604
3576751280
3576756529
3576762205
3576766234
3576774168
3576780394
3576786619
3576792357
3576796446
3576802427
3576807066
3576813353
3576818663
3576823851
3576830198
3576833860
3576839659
3576844847
3576852110
3576855467
3576862181
3576867857
3576872679
3576877806
3576882505
3576888365
3576893980
3576899473
3576903929
3576909971
3576914427
3576921568
3576926878
3576932920
3576937986
3576943174
3576948423
3576952573
3576958494
3576962461
3576969114
3576974363
3576979124
3576984067
3576989011
3576994382
3576999937
3577006284
3577012388
3577017881
3577020994
3577028684
3577030820
3577038938
3577045164
3577050535
3577056760
3577060666
3577066770
3577072385
3577077207
3577083738
3577091794
3577097898
3577103086
3577109189
3577114499
3577119382
3577124631
3577130246
3577135251
3577141111
3577146115
3577151120
3577156674
3577160947
3577168881
3577173886
3577178647
3577185300
3577189389
3577195371
3577199765
3577206296
3577211423
3577217465
3577222592
3577227658
3577233029
3577236874
3577244138
3577250058
3577256345
3577260617
3577266232
3577271237
3577279782
3577285275
3577290646
3577297055
3577302365
3577306882
3577312070
3577318051
3577322995
3577329159
3577333981
3577339413
3577344784
3577348630
3577355527
3577360959
3577366269
3577372555
3577378293
3577382992
3577388730
3577393490
3577399105
3577405514
3577410885
3577416073
3577422421
3577427792
3577432919
3577438046
3577443966
3577449887
3577455990
3577460324
3577466122
3577470333
3577476071
3577482601
3577487911
3577493221
3577498348
3577503414
3577509823
3577514279
3577519344
3577524838
3577530819
3577536556
3577540829
3577547604
3577551815
3577557735
3577562740
3577568966
3577574642
3577579952
3577586910
3577593380
3577598324
3577604366
3577611690
3577617794
3577622921
3577628292
3577633663
3577640255
3577645687
3577653194
3577656490
3577662838
3577669124
3577674373
3577679744
3577685054
3577690242
3577695614
3577702572
3577706539
3577712825
3577717281
3577723079
3577729366
3577735347
3577740901
3577746273
3577751400
3577756649
3577762691
3577768062
3577773433
3577779659
3577787044
3577792171
3577798580
3577802974
3577808406
3577814876
3577821163
3577826839
3577832027
3577837703
3577842036
3577848140
3577853267
3577859981
3577865535
3577870418
3577874690
3577881587
3577887508
3577892879
3577898433
3577903804
3577910396
3577915828
3577921138
3577925349
3577931026
3577935420
3577943110
3577948787
3577954036
3577959468
3577964595
3577969966
3577975093
3577980830
3577986812
3577991877
3577998164
3578003291
3578006343
3578012751
3578017207
3578026240
3578031184
3578036250
3578041865
3578047480
3578052485
3578057917
3578064326
3578068659
3578075617
3578081782
3578086909
3578093073
3578099238
3578106867
3578112422
3578118281
3578124812
3578130427
3578136530
3578142512
3578148920
3578154780
3578161616
3578167048
3578170527
3578176813
3578182001
3578188349
3578191950
3578198298
3578203913
3578208979
3578214472
3578219721
3578226679
3578232477
3578237604
3578243220
3578249323
3578253779
3578259821
3578264155
3578271662
3578276972
3578282221
3578287043
3578292231
3578300348
3578306757
3578313105
3578317499
3578323603
3578328913
3578334772
3578340570
3578344904
3578351435
3578357477
3578362665
3578368219
3578373712
3578378778
3578384394
3578390802
3578396234
3578401605
3578406488
3578413263
3578417658
3578422846
3578428583
3578433893
3578440302
3578446100
3578451044
3578455560
3578462701
3578467828
3578474725
3578478509
3578485101
3578491632
3578496881
3578502130
3578505975
3578513544
3578519281
3578525079
3578529474
3578536065
3578540399
3578546991
3578550042
3578558832
3578564020
3578569207
3578574640
3578580194
3578584771
3578590387
3578596673
3578601312
3578607354
3578611688
3578619134
3578624444
3578631524
3578637933
3578643731
3578649652
3578653741
3578660394
3578665765
3578670465
3578676080
3578681390
3578687432
3578692620
3578697381
3578702935
3578708795
3578713189
3578719720
3578726373
3578731500
3578736871
3578741998
3578746819
3578751946
3578757623
3578763543
3578769341
3578773614
3578779229
3578785332
3578790459
3578795647
3578801934
3578808831
3578815117
3578820428
3578825310
3578831536
3578835869
3578843682
3578848626
3578855095
3578860833
3578865960
3578871392
3578876458
3578882683
3578888604
3578893853
3578899407
3578904839
3578909111
3578915276
3578919854
3578927666
3578933220
3578938469
3578943718
3578948906
3578954888
3578958672
3578965630
3578971428
3578978142
3578981621
3578990349
3578995842
3579001335
3579008782
3579013481
3579019402
3579025566
3579030693
3579035454
3579040642
3579045769
3579053276
3579058769
3579063896
3579069572
3579075371
3579081535
3579085930
3579092888
3579097526
3579104057
3579110710
3579116569
3579122124
3579127434
3579136162
3579144157
3579150810
3579156303
3579162773
3579168632
3579174247
3579179374
3579185234
3579191459
3579196464
3579202140
3579208610
3579213371
3579219841
3579225151
3579229911
3579235466
3579241142
3579247489
3579254325
3579259391
3579265312
3579270072
3579276115
3579280265
3579288078
3579292899
3579298515
3579303764
3579308341
3579317436
3579324271
3579329520
3579335014
3579340873
3579346488
3579351676
3579357536
3579362601
3579368278
3579375480
3579380424
3579385856
3579391044
3579398429
3579403373
3579409476
3579414969
3579420524
3579425590
3579432242
3579437308
3579443107
3579448844
3579454215
3579460380
3579465934
3579472098
3579481986
3579487296
3579492301
3579498282
3579503775
3579511161
3579516715
3579521292
3579527091
3579531546
3579537711
3579543387
3579549002
3579554984
3579560416
3579565299
3579570792
3579575003
3579582694
3579588980
3579593436
3579600821
3579607108
3579613089
3579619742
3579626578
3579632315
3579636954
3579644339
3579647696
3579654654
3579660513
3579665457
3579672354
3579678336
3579684012
3579687125
3579695120
3579700918
3579706412
3579711172
3579716604
3579722891
3579728445
3579734183
3579738577
3579745291
3579750540
3579756216
3579762014
3579767141
3579773733
3579777823
3579784720
3579795462
3579803091
3579808523
3579814199
3579819754
3579825491
3579831472
3579838369
3579843496
3579848501
3579854055
3579859304
3579866506
3579870962
3579877554
3579883718
3579888662
3579893911
3579899343
3579905935
3579909048
3579917043
3579922537
3579927663
3579933096
3579937185
3579944570
3579950185
3579955373
3579960256
3579965749
3579972341
3579976797
3579984304
3579989492
3579995290
3579998464
3580005727
3580011831
3580017385
3580025503
3580031240
3580036306
3580042287
3580046193
3580052663
3580058156
3580065725
3580069265
3580077138
3580082937
3580088430
3580094777
3580099294
3580106557
3580111806
3580120778
3580123891
3580132253
3580138356
3580144033
3580150197
3580155629
3580162160
3580166554
3580173329
3580177602
3580183888
3580190419
3580196645
3580201833
3580208119
3580212758
3580220143
3580226186
3580231801
3580237660
3580243459
3580249379
3580254933
3580260121
3580265736
3580272145
3580278126
3580283925
3580288624
3580295155
3580299855
3580305653
3580317738
3580326100
3580329030
3580336415
3580342518
3580348134
3580353810
3580358754
3580364918
3580371449
3580377247
3580382496
3580387135
3580394459
3580398365
3580404896
3580411793
3580415821
3580422840
3580427174
3580433705
3580439381
3580444325
3580450611
3580454701
3580461720
3580466297
3580472340
3580477772
3580483326
3580490345
3580496143
3580500904
3580505055
3580511097
3580518116
3580523914
3580530506
3580534596
3580540394
3580546558
3580551502
3580557362
3580563221
3580567310
3580571888
3580575855
3580579761
3580583607
3580588306
3580592762
3580597278
3580600880
3580606556
3580611011
3580615467
3580618824
3580624622
3580630054
3580634388
3580638355
3580642811
3580647083
3580650440
3580657276
3580660511
3580665149
3580667530
3580674183
3580678455
3580681629
3580687061
3580691333
3580696399
3580699756
3580704822
3580708423
3580713672
3580719287
3580725391
3580729114
3580734363
3580738330
3580743335
3580748279
3580752613
3580757190
3580766223
3580771106
3580775073
3580781177
3580786182
3580790698
3580795825
3580800342
3580804370
3580808093
3580812305
3580819080
3580823474
3580828357
3580832324
3580836475
3580841174
3580845203
3580849841
3580854724
3580860278
3580864001
3580869372
3580874072
3580877978
3580882678
3580887378
3580893542
3580896411
3580901538
3580905566
3580909778
3580912341
3580918750
3580926928
3580931201
3580936023
3580939807
3580944323
3580950732
3580954638
3580960315
3580965564
3580970385
3580976306
3580979052
3580984912
3580990283
3580993884
3580999133
3581002795
3581007312
3581011645
3581018176
3581024157
3581030505
3581035998
3581041552
3581046008
3581051257
3581056140
3581060961
3581065539
3581070788
3581074511
3581080370
3581082934
3581090258
3581093615
3581098864
3581102953
3581107531
3581112414
3581116259
3581123034
3581125903
3581131640
3581134142
3581139880
3581144335
3581148669
3581152819
3581160082
3581165087
3581170275
3581176195
3581180041
3581184862
3581191332
3581197802
3581203112
3581208117
3581211474
3581216906
3581222033
3581226305
3581232165
3581237658
3581241930
3581247545
3581251818
3581258349
3581261339
3581268602
3581271715
3581278490
3581285570
3581290880
3581295275
3581300768
3581304613
3581312120
3581316576
3581321398
3581326647
3581331530
3581336229
3581341783
3581347460
3581351976
3581359178
3581365099
3581370592
3581374864
3581380724
3581386644
3581390794
3581396349
3581399645
3581408739
3581412584
3581419969
3581423448
3581430223
3581435594
3581439806
3581444688
3581451036
3581456163
3581462083
3581466356
3581472276
3581477952
3581483568
3581489366
3581495775
3581502550
3581507982
3581512498
3581515916
3581524400
3581528367
3581537645
3581541368
3581548692
3581555833
3581561143
3581566331
3581571214
3581576402
3581581956
3581586717
3581595384
3581600938
3581605394
3581610337
3581616685
3581621202
3581626634
3581633653
3581639695
3581645616
3581650193
3581655625
3581660569
3581665330
3581670884
3581675889
3581683457
3581686936
3581693345
3581698289
3581703965
3581708726
3581714219
3581718552
3581724351
3581729722
3581741807
3581748093
3581753526
3581757432
3581761765
3581768723
3581772752
3581778855
3581784287
3581788376
3581793992
3581799485
3581802964
3581811204
3581817368
3581822861
3581826462
3581831894
3581836716
3581840439
3581847153
3581853257
3581859421
3581862778
3581869004
3581871933
3581878952
3581882187
3581892380
3581898484
3581902817
3581907700
3581913498
3581918076
3581923874
3581926010
3581935105
3581941513
3581946213
3581951767
3581957321
3581962265
3581968491
3581974350
3581980637
3581986435
3581991623
3581997116
3582002548
3582007126
3582013229
3582018784
3582024216
3582030441
3582036728
3582041672
3582046188
3582052658
3582057297
3582060593
3582072128
3582078293
3582084396
3582091354
3582096542
3582102707
3582108383
3582112900
3582121750
3582126388
3582132187
3582137192
3582142685
3582148605
3582152694
3582159591
3582165878
3582171798
3582177841
3582183578
3582189071
3582195724
3582201461
3582205978
3582212204
3582216659
3582222213
3582227401
3582232345
3582238998
3582244735
3582249191
3582253890
3582259811
3582264633
3582270431
3582276351
3582286300
3582291000
3582298202
3582303268
3582310165
3582316268
3582322372
3582326034
3582334029
3582340560
3582345199
3582352340
3582356795
3582360274
3582368270
3582371627
3582379745
3582383468
3582390243
3582395858
3582400558
3582405257
3582411849
3582417342
3582422896
3582428328
3582434676
3582439620
3582447249
3582452498
3582461104
3582466658
3582473250
3582478865
3582485335
3582490035
3582496688
3582501754
3582507430
3582512191
3582518782
3582526839
3582534468
3582540572
3582545149
3582550826
3582556075
3582562972
3582568343
3582575240
3582579756
3582587019
3582592635
3582597029
3582601729
3582608626
3582613631
3582619978
3582626936
3582633223
3582638533
3582643172
3582647688
3582655562
3582662031
3582669295
3582673628
3582681685
3582686445
3582691511
3582697859
3582702193
3582706465
3582713118
3582719710
3582724836
3582729231
3582736128
3582743330
3582749678
3582755598
3582763105
3582767866
3582775312
3582788130
3582793440
3582797956
3582803999
3582808149
3582812300
3582821150
3582826643
3582832624
3582837263
3582842878
3582848188
3582852400
3582855879
3582864973
3582871443
3582877851
3582882124
3582889509
3582892500
3582901533
3582906660
3582911848
3582917463
3582922407
3582926923
3582931867
3582937116
3582941145
3582944135
3582952619
3582957441
3582962995
3582968183
3582972089
3582975141
3582982343
3582985456
3582991865
3582996992
3583003339
3583007795
3583013166
3583017988
3583024030
3583028364
3583036786
3583040998
3583046857
3583052839
3583057111
3583062360
3583066999
3583072187
3583077069
3583082746
3583087201
3583092755
3583098188
3583103376
3583109479
3583113813
3583120404
3583126203
3583131879
3583138043
3583143109
3583150311
3583155988
3583161908
3583168988
3583175519
3583181683
3583186200
3583192365
3583196576
3583199994
3583207318
3583213605
3583219098
3583224042
3583233441
3583237897
3583244916
3583250470
3583255597
3583261273
3583268536
3583273541
3583279156
3583283673
3583289837
3583294293
3583300458
3583306256
3583311383
3583317853
3583323651
3583328167
3583333844
3583339520
3583343792
3583349835
3583353192
3583361554
3583365216
3583371869
3583377240
3583382916
3583389141
3583393353
3583399212
3583405255
3583411602
3583416302
3583420635
3583427105
3583431744
3583437481
3583443585
3583449444
3583457745
3583461712
3583469525
3583475506
3583479778
3583484783
3583490948
3583495892
3583504009
3583507671
3583514446
3583519329
3583525249
3583529949
3583534222
3583540081
3583546307
3583551250
3583557598
3583563274
3583568951
3583573223
3583576641
3583584270
3583590252
3583596111
3583600872
3583606670
3583610027
3583617412
3583622234
3583626873
3583633037
3583639141
3583644390
3583649578
3583655864
3583660564
3583664898
3583671550
3583676067
3583679424
3583688091
3583691936
3583699443
3583703838
3583710979
3583715190
3583721355
3583725078
3583733745
3583739849
3583745708
3583750652
3583756267
3583761150
3583766399
3583771159
3583777568
3583784282
3583788738
3583795085
3583799602
3583805583
3583811443
3583816753
3583823344
3583830302
3583836589
3583841106
3583846660
3583850749
3583856670
3583862163
3583869487
3583873210
3583880595
3583884135
3583890422
3583894694
3583901408
3583905864
3583913249
3583919597
3583925029
3583929362
3583936015
3583940410
3583946269
3583950541
3583954203
3583962993
3583969096
3583974772
3583979045
3583984416
3583989115
3583994670
3583999614
3584007731
3584012919
3584019999
3584026591
3584033244
3584038493
3584044779
3584049296
3584055399
3584061625
3584065898
3584071635
3584076884
3584082682
3584087077
3584092875
3584096415
3584105692
3584109965
3584117594
3584121195
3584127665
3584132609
3584138285
3584144694
3584150248
3584155436
3584162516
3584167887
3584171915
3584177653
3584183329
3584187662
3584195048
3584201395
3584206217
3584211954
3584216959
3584221293
3584226664
3584231669
3584236124
3584244608
3584250101
3584256632
3584261820
3584267191
3584272501
3584276651
3584283060
3584290323
3584296976
3584301615
3584308206
3584312845
3584318216
3584323160
3584329569
3584335611
3584341348
3584345499
3584352701
3584357157
3584363931
3584368204
3584374613
3584380960
3584387247
3584392008
3584398843
3584404459
3584409830
3584416299
3584419839
3584428018
3584434366
3584438638
3584443460
3584449686
3584454568
3584459939
3584464212
3584470621
3584477334
3584482583
3584488809
3584493509
3584498086
3584505533
3584516153
3584521951
3584527871
3584534097
3584538553
3584543130
3584548318
3584553384
3584557351
3584560281
3584567910
3584573953
3584579873
3584584573
3584590554
3584594339
3584602578
3584606790
3584616189
3584622537
3584628640
3584632607
3584639871
3584644509
3584649880
3584655679
3584661660
3584668679
3584673196
3584679055
3584683450
3584686990
3584694680
3584697976
3584705178
3584709023
3584716897
3584720437
3584727395
3584732156
3584737038
3584743203
3584749428
3584754494
3584760781
3584765053
3584771340
3584775735
3584781472
3584787209
3584792702
3584798806
3584803567
3584809060
3584815102
3584819436
3584825417
3584829690
3584834694
3584844887
3584850075
3584855568
3584861306
3584868874
3584872597
3584878945
3584884987
3584892189
3584897988
3584902748
3584909401
3584913735
3584921059
3584925453
3584932045
3584938942
3584943764
3584948891
3584954811
3584961525
3584968483
3584973427
3584982155
3584988319
3584996925
3585004128
3585011086
3585016396
3585022499
3585024391
3585032509
3585037819
3585043068
3585048622
3585053139
3585058266
3585064308
3585069862
3585075966
3585082130
3585086891
3585092506
3585097877
3585104835
3585108680
3585116310
3585119728
3585126808
3585132911
3585138527
3585143837
3585149696
3585156166
3585161598
3585168739
3585177040
3585182777
3585190162
3585194129
3585201820
3585207984
3585212745
3585218666
3585223792
3585229286
3585236366
3585242957
3585248329
3585253394
3585258094
3585262184
3585267738
3585272743
3585277442
3585282691
3585287513
3585292396
3585296851
3585301490
3585307838
3585313636
3585317847
3585323280
3585328529
3585334510
3585338050
3585345252
3585350013
3585355445
3585361060
3585365333
3585370521
3585375464
3585380225
3585383948
3585389441
3585394263
3585399390
3585403663
3585408423
3585415076
3585420691
3585425330
3585430335
3585435279
3585440528
3585444007
3585449805
3585456458
3585460242
3585467078
3585472449
3585478369
3585485389
3585493628
3585502906
3585512732
3585521277
3585528235
3585535193
3585542334
3585550086
3585555823
3585560828
3585565222
3585569617
3585574255
3585578101
3585583106
3585587805
3585593237
3585597693
3585601904
3585606299
3585611060
3585615393
3585620093
3585625220
3585629736
3585634558
3585638098
3585642859
3585647681
3585655615
3585660681
3585665076
3585670264
3585674658
3585678686
3585683020
3585688330
3585693213
3585699499
3585703955
3585708349
3585712378
3585716589
3585721472
3585727270
3585733801
3585738073
3585742407
3585747778
3585752600
3585756872
3585764868
3585770422
3585774633
3585780127
3585784826
3585789587
3585794348
3585799536
3585805517
3585811560
3585816381
3585820532
3585825537
3585831091
3585836279
3585842687
3585849157
3585852880
3585857702
3585862646
3585867834
3585871618
3585878881
3585883459
3585889562
3585895055
3585902319
3585908971
3585913488
3585919653
3585926061
3585932104
3585936986
3585942113
3585947240
3585953893
3585960424
3585969396
3585975988
3585982091
3585986730
3585993139
3585997716
3586004186
3586008642
3586014257
3586020238
3586027013
3586031286
3586036962
3586042821
3586048070
3586052404
3586058385
3586064611
3586070287
3586074926
3586079747
3586085363
3586089757
3586095677
3586100621
3586107640
3586111058
3586118077
3586122899
3586128087
3586132970
3586138951
3586143651
3586151341
3586158482
3586164098
3586170689
3586179234
3586186375
3586191014
3586197545
3586203038
3586208958
3586213841
3586219579
3586222874
3586230748
3586234349
3586239964
3586244664
3586252659
3586256505
3586263463
3586268834
3586274022
3586278844
3586283787
3586288731
3586295628
3586299962
3586307042
3586311375
3586317235
3586323155
3586327672
3586333531
3586339146
3586346470
3586351597
3586357518
3586363987
3586368748
3586372593
3586380894
3586385044
3586398655
3586402622
3586409153
3586414158
3586419651
3586424534
3586430638
3586435093
3586440891
3586447605
3586452854
3586458653
3586464146
3586468540
3586474461
3586479771
3586487095
3586493382
3586498386
3586504002
3586513401
3586517857
3586522739
3586529636
3586534397
3586540623
3586545994
3586554355
3586559177
3586567356
3586573337
3586579258
3586584629
3586594089
3586597873
3586604221
3586609287
3586615635
3586620334
3586629306
3586634861
3586642002
3586647007
3586653354
3586657627
3586662876
3586668857
3586674839
3586679172
3586683445
3586691806
3586696689
3586702610
3586706089
3586713352
3586719211
3586724033
3586728977
3586735568
3586739536
3586746066
3586752048
3586759311
3586765170
3586771213
3586774753
3586785373
3586792575
3586796298
3586801242
3586807224
3586813022
3586817477
3586824008
3586831027
3586833408
3586841342
3586844760
3586852450
3586855807
3586862643
3586867587
3586875766
3586879855
3586887485
3586893039
3586898349
3586902682
3586908297
3586914096
3586920199
3586924777
3586931735
3586936068
3586942233
3586948153
3586951571
3586957370
3586962374
3586969882
3586975375
3586981417
3586986911
3586992587
3586997042
3587002963
3587007540
3587014437
3587018893
3587025118
3587030917
3587035678
3587041659
3587046481
3587052523
3587055880
3587064608
3587068636
3587075716
3587079379
3587086703
3587091586
3587097384
3587102206
3587108492
3587113802
3587119967
3587124911
3587133089
3587139437
3587145846
3587149935
3587163180
3587166231
3587177096
3587180819
3587187838
3587193331
3587197664
3587202608
3587210482
3587216097
3587221834
3587226778
3587232576
3587237154
3587243807
3587248201
3587255587
3587260714
3587267794
3587273897
3587279329
3587284090
3587287752
3587296114
3587300081
3587307222
3587312349
3587318331
3587323885
3587329500
3587335787
3587340425
3587345003
3587349397
3587358247
3587363496
3587369234
3587374483
3587381807
3587386202
3587392122
3587397798
3587404512
3587409334
3587419405
3587423006
3587429903
3587434663
3587441011
3587446077
3587452974
3587458040
3587463106
3587467561
3587473909
3587478242
3587484590
3587488984
3587492402
3587501130
3587507051
3587512788
3587518281
3587522676
3587528535
3587533601
3587538728
3587546235
3587549897
3587558076
3587562532
3587569551
3587575166
3587579927
3587583833
3587591889
3587598664
3587603059
3587608247
3587613801
3587619477
3587623689
3587630036
3587634248
3587641572
3587646394
3587651399
3587656037
3587661530
3587667329
3587673615
3587679353
3587684724
3587689484
3587694856
3587700410
3587706452
3587711213
3587717499
3587725922
3587731660
3587738618
3587744782
3587746796
3587755585
3587759370
3587768891
3587772980
3587779694
3587783295
3587790375
3587795319
3587801056
3587807465
3587814362
3587820893
3587826569
3587831330
3587836029
3587841889
3587846589
3587852448
3587857758
3587864167
3587869355
3587875214
3587879364
3587884857
3587889618
3587896149
3587901032
3587907868
3587913056
3587920380
3587925751
3587931122
3587935883
3587941681
3587946076
3587952850
3587958649
3587965424
3587971344
3587976715
3587981049
3587984467
3587993073
3587996490
3588005218
3588009186
3588017425
3588020843
3588027985
3588031341
3588037811
3588042877
3588050690
3588056122
3588060882
3588067352
3588074737
3588080780
3588087311
3588093353
3588101593
3588106476
3588112945
3588118072
3588124603
3588130096
3588135955
3588140777
3588146881
3588153228
3588160369
3588165130
3588170745
3588177093
3588182952
3588187835
3588191497
3588200225
3588204315
3588211883
3588217254
3588221954
3588228240
3588233734
3588238738
3588247466
3588252899
3588258392
3588264556
3588271209
3588275176
3588283416
3588287444
3588296172
3588304351
3588311553
3588313934
3588323272
3588327849
3588338225
3588345244
3588358306
3588366179
3588380523
3588388274
3588396209
3588403045
3588406035
3588416289
3588424468
3588432280
3588439483
3588446990
3588453826
3588459319
3588468779
3588476104
3588483489
3588489958
3588496367
3588507048
3588512847
3588521819
3588528960
3588535674
3588542265
3588547331
3588557219
3588561430
3588570097
3588576872
3588585844
3588592802
3588598174
3588606963
3588613860
3588618925
3588627959
3588630888
3588644255
3588649443
3588656950
3588664274
3588671171
3588681242
3588684904
3588694731
3588701506
3588713041
3588718107
3588726408
3588732939
3588741545
3588747526
3588752348
3588760527
3588767424
3588773466
3588779936
3588786344
3588796049
3588804838
3588814298
3588819120
3588826200
3588832426
3588842497
3588849271
3588856901
3588862943
3588867704
3588876066
3588882230
3588889433
3588897367
3588900175
3588910001
3588918607
3588925016
3588931791
3588938810
3588945219
3588951993
3588958646
3588966703
3588976957
3588982084
3588991605
3588998563
3589004789
3589010892
3589017606
3589024869
3589030790
3589038358
3589046476
3589049588
3589058194
3589065030
3589073209
3589077359
3589085477
3589091703
3589097379
3589107877
3589113309
3589122891
3589129544
3589136441
3589142850
3589150052
3589156827
3589164334
3589172818
3589181363
3589188626
3589197537
3589205655
3589215054
3589220303
3589228787
3589235623
3589243436
3589251309
3589258450
3589265774
3589271634
3589276394
3589280362
3589288418
3589291836
3589300930
3589307095
3589311551
3589316372
3589323147
3589328701
3589333767
3589338894
3589346341
3589350491
3589356839
3589361660
3589368008
3589374356
3589379360
3589383877
3589390164
3589396450
3589403042
3589407376
3589411465
3589418606
3589424160
3589428616
3589434292
3589441921
3589446621
3589454128
3589459621
3589464382
3589469204
3589474636
3589481045
3589487087
3589493496
3589499355
3589505642
3589512539
3589518215
3589525478
3589531155
3589537807
3589543117
3589549831
3589555080
3589562038
3589567959
3589574672
3589580532
3589587490
3589595119
3589601528
3589607021
3589612514
3589618740
3589624477
3589629177
3589635402
3589642421
3589646389
3589653835
3589659267
3589664272
3589668972
3589674282
3589680507
3589686672
3589690639
3589699062
3589702724
3589708400
3589712917
3589719020
3589723537
3589730190
3589736659
3589742580
3589748195
3589752345
3589758571
3589763454
3589766994
3589776454
3589784206
3589788905
3589794643
3589800746
3589806361
3589811977
3589817531
3589828700
3589834865
3589839564
3589846217
3589851161
3589856227
3589862514
3589867335
3589874415
3589879542
3589886012
3589891200
3589896388
3589900721
3589906764
3589912562
3589918971
3589923487
3589929713
3589935511
3589940150
3589945948
3589949977
3589956141
3589959803
3589967311
3589973353
3589977809
3589982691
3589988795
3589993861
3590000147
3590004725
3590011561
3590018519
3590024256
3590028651
3590036036
3590042933
3590051600
3590056666
3590064906
3590069666
3590076991
3590081873
3590088160
3590095118
3590101343
3590106592
3590113856
3590120508
3590122889
3590131556
3590135523
3590142176
3590146876
3590152674
3590157435
3590166407
3590171412
3590177027
3590182459
3590190088
3590195765
3590202601
3590208216
3590214258
3590220850
3590225855
3590234217
3590241053
3590245813
3590252344
3590257532
3590262171
3590271204
3590277246
3590282923
3590288233
3590292688
3590296106
3590303552
3590309778
3590317529
3590323023
3590327417
3590333093
3590338709
3590342798
3590348535
3590352564
3590360193
3590367273
3590371729
3590378320
3590382166
3590387903
3590391626
3590397546
3590402063
3590413232
3590418970
3590425989
3590431970
3590438501
3590443262
3590450220
3590456567
3590460901
3590467065
3590472864
3590477441
3590483301
3590486963
3590495508
3590501611
3590510278
3590517114
3590521447
3590526513
3590532800
3590537561
3590544030
3590548730
3590555627
3590560144
3590564904
3590570947
3590576562
3590580957
3590588586
3590596643
3590603173
3590609643
3590611718
3590621057
3590626428
3590632958
3590636620
3590644677
3590649499
3590659264
3590662621
3590670495
3590674035
3590681237
3590686608
3590694115
3590697839
3590705590
3590711816
3590716759
3590724572
3590729394
3590736107
3590742699
3590748253
3590752953
3590759606
3590765038
3590770104
3590776513
3590783104
3590787987
3590794823
3590800011
3590806725
3590811974
3590818139
3590825768
3590831322
3590838097
3590842858
3590848961
3590854088
3590860497
3590864464
3590871544
3590877770
3590883019
3590889061
3590894188
3590900170
3590904869
3590911766
3590918785
3590923302
3590930626
3590936180
3590937889
3590946617
3590952232
3590957665
3590963951
3590968651
3590975548
3590981163
3590985313
3590992027
3591003014
3591012230
3591017113
3591021385
3591029198
3591034935
3591040611
3591044151
3591052513
3591056114
3591063133
3591068138
3591073204
3591078148
3591090477
3591096092
3591102684
3591107322
3591112571
3591118675
3591126487
3591130516
3591137657
3591141441
3591149925
3591153892
3591162376
3591167259
3591174400
3591181175
3591187095
3591194541
3591200462
3591206443
3591212425
3591217491
3591223594
3591229636
3591236839
3591240196
3591248252
3591251731
3591258079
3591264671
3591269981
3591274558
3591280235
3591286277
3591292197
3591299155
3591302451
3591309409
3591314109
3591319785
3591325828
3591332725
3591338584
3591343955
3591350181
3591356528
3591360740
3591367087
3591372764
3591380088
3591384238
3591390647
3591395224
3591400229
3591404990
3591412192
3591418357
3591425742
3591430198
3591435813
3591440634
3591444724
3591451377
3591458274
3591465598
3591471274
3591476462
3591481650
3591485678
3591491965
3591497519
3591503989
3591509238
3591516257
3591522604
3591527365
3591534140
3591540671
3591546408
3591553305
3591560263
3591566000
3591573264
3591579428
3591583945
3591590842
3591597067
3591602804
3591607870
3591613669
3591620688
3591628134
3591633566
3591639975
3591645529
3591651144
3591655417
3591658774
3591666586
3591669943
3591677572
3591684164
3591688864
3591694357
3591700949
3591706137
