3210523519
3210529622
3210535543
3210541585
3210547750
3210553304
3210559652
3210565755
3210570027
3210575399
3210579732
3210585103
3210590169
3210596700
3210601216
3210610494
3210616719
3210622273
3210628987
3210635457
3210644246
3210650411
3210657124
3210663899
3210669759
3210677327
3210682454
3210690999
3210699117
3210705769
3210711568
3210719868
3210725362
3210731282
3210739278
3210745991
3210752644
3210758504
3210766194
3210772420
3210779805
3210786763
3210793416
3210799763
3210807148
3210814045
3210821187
3210828022
3210834248
3210840535
3210847737
3210854145
3210863057
3210870320
3210877766
3210885029
3210891438
3210899861
3210909809
3210916096
3210925129
3210932758
3210939045
3210947712
3210955891
3210962055
3210969929
3210980305
3210989033
3210997150
3211004108
3211011250
3211021870
3211029682
3211035541
3211046284
3211055683
3211063007
3211073749
3211082233
3211089741
3211096210
3211101764
3211111957
3211120258
3211128803
3211134601
3211143085
3211150165
3211157734
3211166400
3211174579
3211180439
3211191608
3211200153
3211206562
3211215228
3211221149
3211231708
3211238971
3211245197
3211252582
3211263202
3211271198
3211285236
3211294574
3211305499
3211313312
3211321124
3211331317
3211339679
3211345233
3211353839
3211361163
3211369159
3211377765
3211385028
3211394000
3211400836
3211405902
3211414142
3211421710
3211429889
3211438495
3211445208
3211452227
3211457354
3211466143
3211475054
3211482440
3211488421
3211495806
3211503192
3211509661
3211517413
3211523516
3211533648
3211541400
3211548052
3211554888
3211560565
3211571368
3211578936
3211585772
3211594744
3211601397
3211610918
3211618304
3211626971
3211634844
3211644427
3211649859
3211658098
3211664507
3211674639
3211681353
3211690020
3211698870
3211706987
3211713030
3211723406
3211730730
3211739214
3211746050
3211754778
3211765581
3211773455
3211780474
3211791765
3211798052
3211804888
3211813188
3211820085
3211827104
3211836015
3211844194
3211852373
3211860857
3211867693
3211876848
3211883562
3211891191
3211899431
3211906938
3211916704
3211923418
3211932512
3211939592
3211946916
3211955705
3211962114
3211969865
3211976640
3211984575
3211992265
3211999711
3212005754
3212014238
3212021989
3212027787
3212036515
3212045671
3212052201
3212059098
3212065568
3212071855
3212082231
3212090776
3212095780
3212105485
3212114213
3212119889
3212131181
3212138871
3212144975
3212152909
3212160905
3212168778
3212178727
3212185624
3212192826
3212199479
3212207902
3212215958
3212224625
3212230912
3212239335
3212245804
3212253251
3212262040
3212270829
3212279007
3212287064
3212295853
3212302140
3212310441
3212320572
3212329361
3212335099
3212345536
3212355301
3212361527
3212371353
3212379959
3212387772
3212395218
3212401688
3212410477
3212418411
3212426834
3212434342
3212440872
3212446426
3212453690
3212461563
3212468582
3212475906
3212482681
3212489761
3212497025
3212505875
3212513504
3212525772
3212533279
3212542251
3212550613
3212560379
3212566788
3212574234
3212581802
3212587845
3212597183
3212605911
3212614212
3212623184
3212632583
3212639602
3212647232
3212654983
3212663589
3212669570
3212677566
3212684097
3212693557
3212701431
3212708511
3212716384
3212723892
3212731765
3212738113
3212746658
3212757095
3212762771
3212772231
3212779128
3212786452
3212793594
3212804397
3212812942
3212820022
3212826675
3212834365
3212839919
3212847854
3212853530
3212859572
3212863784
3212870131
3212875625
3212880935
3212887160
3212892775
3212898696
3212904311
3212909499
3212913466
3212921218
3212928176
3212933242
3212938857
3212945510
3212951125
3212957350
3212962538
3212967849
3212973708
3212979811
3212986220
3212990370
3212996474
3213001845
3213007460
3213012831
3213017592
3213024245
3213031325
3213035414
3213042189
3213047316
3213052931
3213057570
3213063734
3213069228
3213074721
3213080336
3213085463
3213090346
3213096632
3213103590
3213110731
3213119887
3213127028
3213133314
3213140211
3213145582
3213151686
3213156752
3213161696
3213167006
3213171766
3213175612
3213183058
3213189589
3213194594
3213199415
3213204664
3213211317
3213218336
3213224073
3213230543
3213234877
3213241774
3213247267
3213253126
3213258375
3213264173
3213270338
3213276808
3213282728
3213287428
3213293714
3213300428
3213306532
3213311964
3213316969
3213322889
3213329054
3213335157
3213340284
3213346204
3213352003
3213357130
3213363416
3213368238
3213374158
3213379713
3213385572
3213390821
3213395887
3213402967
3213409681
3213415723
3213419874
3213427198
3213432874
3213438917
3213444898
3213451307
3213457227
3213467542
3213472547
3213477918
3213484144
3213488782
3213496595
3213501966
3213508680
3213513196
3213520215
3213529676
3213535840
3213541944
3213547925
3213552198
3213558606
3213563245
3213569409
3213575696
3213581922
3213592114
3213599256
3213606824
3213612561
3213618726
3213625867
3213632276
3213638257
3213643079
3213650281
3213654919
3213661939
3213665418
3213672681
3213678235
3213684460
3213691357
3213696362
3213703076
3213708203
3213714673
3213721631
3213728223
3213732129
3213739758
3213744702
3213750012
3213755017
3213761731
3213766064
3213771985
3213777478
3213782971
3213788464
3213794262
3213799572
3213804394
3213809399
3213813916
3213821911
3213827649
3213835278
3213840588
3213846569
3213852185
3213856335
3213863049
3213868786
3213873974
3213880566
3213885510
3213890637
3213896801
3213904125
3213909863
3213916821
3213921032
3213928173
3213932812
3213938366
3213945324
3213950634
3213957043
3213962048
3213970654
3213978100
3213983715
3213989513
3213995678
3213999950
3214008861
3214014355
3214020885
3214027477
3214033459
3214038219
3214044811
3214049694
3214056225
3214062389
3214067211
3214074474
3214080150
3214086315
3214091869
3214097545
3214104931
3214110546
3214115307
3214121349
3214126903
3214131481
3214138195
3214144908
3214150829
3214154674
3214161144
3214166149
3214171703
3214178112
3214182201
3214189037
3214195445
3214200328
3214205638
3214210826
3214216991
3214219615
3214227367
3214233348
3214237987
3214243541
3214249828
3214255321
3214260753
3214265147
3214272227
3214277660
3214281444
3214287364
3214291392
3214298595
3214305492
3214309581
3214316295
3214321422
3214326182
3214331309
3214336986
3214343455
3214347850
3214354136
3214358958
3214363536
3214368846
3214374827
3214382274
3214387095
3214393504
3214401317
3214406932
3214413585
3214417613
3214425303
3214430186
3214434825
3214439952
3214446238
3214451915
3214457835
3214463267
3214468943
3214473887
3214478587
3214483653
3214489024
3214496043
3214501658
3214506480
3214512034
3214515696
3214521372
3214526194
3214531931
3214538462
3214546092
3214552073
3214561106
3214567881
3214573740
3214581736
3214588755
3214593882
3214599558
3214605601
3214611948
3214615977
3214622813
3214628428
3214633494
3214638254
3214643381
3214648569
3214653879
3214660288
3214665049
3214670542
3214674875
3214680552
3214685373
3214693064
3214698191
3214703196
3214708567
3214713511
3214719065
3214723032
3214729746
3214735727
3214739756
3214746164
3214751108
3214757822
3214763071
3214769174
3214774668
3214780039
3214785410
3214790598
3214796762
3214800852
3214807565
3214812082
3214818308
3214824045
3214829233
3214834726
3214840097
3214845895
3214853098
3214858041
3214863596
3214868723
3214874094
3214878122
3214885812
3214895212
3214899484
3214906259
3214911020
3214916147
3214921579
3214926706
3214933053
3214936960
3214942697
3214947702
3214954843
3214959054
3214964364
3214970834
3214974618
3214981210
3214986520
3214992074
3214996713
3215003610
3215009103
3215012948
3215019845
3215025155
3215031625
3215037118
3215047372
3215053720
3215061227
3215065866
3215075631
3215082650
3215090341
3215097848
3215104074
3215111886
3215118905
3215125985
3215132455
3215139352
3215146371
3215151742
3215160470
3215167611
3215173714
3215180733
3215187875
3215194772
3215201607
3215208810
3215213387
3215219247
3215224312
3215229500
3215236214
3215240731
3215246529
3215251534
3215257393
3215263253
3215268075
3215274422
3215279793
3215285347
3215290780
3215296395
3215300606
3215307686
3215313118
3215319039
3215324898
3215330391
3215336373
3215341744
3215346871
3215353035
3215359383
3215365364
3215370003
3215376106
3215380745
3215387398
3215393440
3215399788
3215404976
3215411568
3215415657
3215423287
3215427254
3215434578
3215439827
3215445564
3215451851
3215456856
3215461617
3215466866
3215474129
3215478706
3215484322
3215490181
3215495552
3215501045
3215506355
3215512520
3215518684
3215523140
3215526863
3215533821
3215537971
3215544502
3215548225
3215554939
3215560859
3215564644
3215572334
3215577827
3215583503
3215588691
3215594551
3215601448
3215605232
3215611702
3215617195
3215623664
3215626350
3215635078
3215642219
3215646125
3215653389
3215658210
3215665046
3215669990
3215676399
3215682258
3215686225
3215692451
3215697029
3215702583
3215707832
3215713630
3215719184
3215724128
3215729682
3215734748
3215739204
3215744209
3215749885
3215754707
3215760871
3215765937
3215771735
3215776862
3215781989
3215786567
3215792976
3215799262
3215804877
3215810554
3215815497
3215820991
3215825141
3215832221
3215837104
3215842109
3215847663
3215853644
3215858039
3215861823
3215869758
3215875495
3215880561
3215885260
3215890998
3215897284
3215901069
3215907721
3215918036
3215920722
3215928290
3215933539
3215938910
3215945258
3215950446
3215955573
3215961859
3215966254
3215972785
3215977606
3215982489
3215987860
3215993537
3215998786
3216004401
3216009833
3216014594
3216019537
3216024970
3216031378
3216037421
3216042853
3216047736
3216052802
3216058051
3216065741
3216071417
3216076239
3216081854
3216086798
3216092169
3216098944
3216104864
3216110968
3216115607
3216122565
3216128058
3216133246
3216138922
3216144293
3216150519
3216155218
3216162054
3216167364
3216172796
3216178228
3216184149
3216190985
3216196661
3216202398
3216207891
3216212835
3216217596
3216222479
3216229071
3216233526
3216239141
3216243719
3216249334
3216254766
3216261419
3216266241
3216271307
3216276556
3216280279
3216287298
3216291265
3216297979
3216303289
3216308599
3216315008
3216320013
3216324957
3216330023
3216337103
3216342168
3216347723
3216352911
3216358526
3216362676
3216368230
3216374090
3216379095
3216386297
3216391729
3216398260
3216401800
3216407659
3216412908
3216418035
3216423772
3216428838
3216434881
3216438726
3216445012
3216448797
3216455877
3216461980
3216467168
3216471929
3216476934
3216482915
3216486516
3216494390
3216500066
3216505254
3216510259
3216515020
3216519963
3216525762
3216530461
3216536504
3216542119
3216548345
3216552617
3216559758
3216563970
3216571599
3216577397
3216582646
3216588384
3216593328
3216599492
3216603642
3216610173
3216616521
3216622624
3216628301
3216633916
3216639470
3216643193
3216649602
3216653508
3216660405
3216665837
3216670232
3216675298
3216680974
3216687199
3216692631
3216697880
3216702763
3216708317
3216713444
3216719121
3216722966
3216730778
3216736271
3216741337
3216745610
3216751225
3216756596
3216762028
3216767460
3216773076
3216779606
3216783268
3216789738
3216794621
3216800236
3216804936
3216810551
3216815861
3216822209
3216827275
3216832218
3216837406
3216841313
3216848149
3216853215
3216859013
3216864933
3216870121
3216874699
3216880253
3216886601
3216892887
3216899174
3216904667
3216910038
3216915531
3216920902
3216926518
3216931767
3216937748
3216942081
3216948673
3216952580
3216959599
3216964603
3216970707
3216977177
3216981998
3216986820
3216992802
3216996952
3217001774
3217009281
3217014835
3217018619
3217024845
3217028446
3217034000
3217039676
3217046757
3217052250
3217057255
3217063480
3217068119
3217075016
3217079471
3217085392
3217091739
3217096012
3217102359
3217108768
3217113468
3217117435
3217125431
3217130680
3217136295
3217141605
3217146854
3217152225
3217157535
3217163211
3217168704
3217174381
3217179874
3217184329
3217190494
3217195438
3217200626
3217205997
3217211917
3217217227
3217223392
3217228336
3217233768
3217237491
3217244083
3217250674
3217255069
3217260196
3217265811
3217271121
3217276065
3217281131
3217288028
3217292667
3217297549
3217304202
3217308475
3217314029
3217318912
3217325931
3217331058
3217336001
3217341433
3217346927
3217351321
3217357303
3217363528
3217368838
3217375125
3217380252
3217386233
3217391909
3217396548
3217403262
3217408084
3217413638
3217418460
3217424136
3217429263
3217434207
3217441104
3217444888
3217451174
3217457583
3217462710
3217467837
3217472842
3217477969
3217483462
3217489871
3217494631
3217500002
3217506106
3217510989
3217516055
3217522219
3217527834
3217532046
3217539858
3217545474
3217550967
3217555605
3217561159
3217566958
3217572634
3217578371
3217583987
3217589175
3217593874
3217601198
3217607119
3217612124
3217616762
3217622439
3217627993
3217633486
3217638369
3217644411
3217649721
3217654604
3217659731
3217664736
3217670595
3217676455
3217681704
3217687563
3217692812
3217697756
3217703066
3217708132
3217713747
3217719118
3217725649
3217731203
3217736757
3217742617
3217747621
3217752504
3217757570
3217763735
3217769533
3217775209
3217779299
3217786135
3217789675
3217796571
3217802614
3217806337
3217812868
3217816591
3217823122
3217827760
3217833437
3217838075
3217844972
3217850038
3217854921
3217859743
3217864931
3217871095
3217876771
3217884340
3217889955
3217895692
3217901308
3217905824
3217911561
3217917177
3217922243
3217927980
3217933900
3217938173
3217944581
3217949952
3217956483
3217961671
3217965883
3217971193
3217976564
3217982362
3217987245
3217993531
3217998353
3218003724
3218007814
3218014589
3218019044
3218024781
3218032167
3218037232
3218042543
3218047731
3218052980
3218059022
3218063905
3218069154
3218075318
3218079835
3218085755
3218091920
3218096925
3218103700
3218109986
3218114869
3218119630
3218124757
3218130799
3218136842
3218141541
3218147828
3218153382
3218157655
3218163270
3218169312
3218174378
3218179383
3218185059
3218190369
3218195252
3218201661
3218206666
3218211182
3218216004
3218221863
3218228150
3218233155
3218238709
3218244141
3218248597
3218254456
3218260071
3218264893
3218270386
3218274781
3218280457
3218286072
3218291138
3218296265
3218301331
3218307740
3218311463
3218318055
3218321961
3218328064
3218333985
3218340088
3218345948
3218351624
3218357422
3218364197
3218368653
3218375733
3218381043
3218385681
3218392395
3218396912
3218401795
3218407654
3218412964
3218419678
3218422363
3218429504
3218434937
3218440674
3218445313
3218450989
3218455749
3218460754
3218468018
3218470398
3218477844
3218483704
3218489380
3218494079
3218501526
3218506958
3218512451
3218518127
3218524048
3218529663
3218536011
3218540893
3218547363
3218553650
3218559631
3218565307
3218569641
3218577697
3218583801
3218589416
3218596191
3218604248
3218611511
3218617187
3218623779
3218629333
3218635009
3218640686
3218646057
3218652038
3218656372
3218663452
3218667541
3218675109
3218681823
3218686523
3218691711
3218697753
3218703674
3218709045
3218714538
3218719848
3218725402
3218730651
3218737304
3218741454
3218747192
3218752807
3218758605
3218765014
3218771361
3218776183
3218782165
3218787475
3218792235
3218797484
3218803649
3218809325
3218814696
3218820739
3218826232
3218831054
3218836364
3218842101
3218847594
3218854308
3218859252
3218866820
3218871886
3218877868
3218882994
3218888732
3218895263
3218901366
3218907958
3218912413
3218919249
3218923461
3218931761
3218937133
3218943236
3218947936
3218953856
3218958373
3218964415
3218971068
3218976744
3218981993
3218987425
3218993102
3218998534
3219003356
3219008849
3219014220
3219019591
3219026427
3219030699
3219038084
3219043211
3219047911
3219054259
3219060484
3219066344
3219072142
3219077513
3219083189
3219088988
3219094542
3219099913
3219105711
3219112486
3219119200
3219124205
3219130369
3219135252
3219139586
3219148069
3219153624
3219160215
3219166258
3219170897
3219175352
3219182982
3219188902
3219195189
3219201109
3219205320
3219211729
3219215940
3219222532
3219226744
3219233335
3219239622
3219245664
3219248350
3219256224
3219261106
3219267088
3219271665
3219277708
3219283323
3219289304
3219293150
3219299131
3219305174
3219310484
3219315733
3219321226
3219326719
3219332151
3219338071
3219343443
3219348814
3219354795
3219361021
3219366392
3219372434
3219377195
3219383176
3219389646
3219395078
3219400449
3219406003
3219411619
3219417112
3219423093
3219428464
3219433957
3219439573
3219446042
3219452207
3219459043
3219463193
3219469724
3219475766
3219480588
3219486692
3219491391
3219496274
3219502256
3219507871
3219513974
3219518979
3219524350
3219529904
3219535581
3219541745
3219547116
3219552915
3219558347
3219563901
3219569760
3219574399
3219581052
3219586057
3219592893
3219599240
3219605100
3219610837
3219616025
3219621396
3219628171
3219632260
3219640866
3219646298
3219652158
3219658505
3219664426
3219671078
3219677121
3219683713
3219689572
3219693112
3219699704
3219705990
3219710995
3219716427
3219721127
3219726132
3219732235
3219738278
3219743283
3219749203
3219755246
3219760312
3219765683
3219770688
3219774899
3219780270
3219786618
3219793026
3219799191
3219803463
3219811093
3219817013
3219822201
3219828366
3219833859
3219839169
3219844723
3219850033
3219855038
3219861630
3219867611
3219872555
3219877682
3219882809
3219889218
3219894894
3219900875
3219905636
3219911739
3219916256
3219921200
3219927059
3219932552
3219938717
3219945736
3219954464
3219959896
3219964535
3219969601
3219976070
3219981624
3219987728
3219993526
3220000301
3220005916
3220011349
3220015804
3220023006
3220027645
3220033077
3220038814
3220044124
3220049740
3220055599
3220060238
3220066280
3220072261
3220077022
3220083126
3220087825
3220094234
3220098751
3220105342
3220112911
3220119136
3220124874
3220129207
3220136531
3220140682
3220147396
3220152156
3220160030
3220164729
3220171199
3220176021
3220182186
3220187312
3220195369
3220201350
3220205135
3220212093
3220218318
3220223933
3220228999
3220234004
3220241450
3220246822
3220252803
3220258357
3220263240
3220268672
3220274165
3220279414
3220285701
3220290706
3220295833
3220301997
3220307796
3220312251
3220319209
3220324580
3220330073
3220334956
3220340205
3220345515
3220350886
3220356501
3220361689
3220367854
3220373896
3220378596
3220384394
3220390620
3220396540
3220402644
3220406489
3220413752
3220418330
3220423762
3220430049
3220435786
3220442378
3220446345
3220454218
3220459468
3220465876
3220471858
3220477473
3220483271
3220488459
3220494868
3220498896
3220504694
3220510066
3220516596
3220520686
3220528315
3220531001
3220538813
3220544306
3220549311
3220555231
3220561396
3220566950
3220572382
3220578425
3220583796
3220589594
3220594843
3220600275
3220606379
3220611628
3220617792
3220624506
3220630243
3220635737
3220641779
3220647211
3220654230
3220658747
3220664972
3220669367
3220676142
3220680292
3220688105
3220694086
3220700067
3220704279
3220710688
3220717768
3220723261
3220727106
3220734491
3220740106
3220745478
3220750238
3220756952
3220761835
3220768244
3220774713
3220779840
3220785516
3220790704
3220796076
3220801447
3220806818
3220812494
3220818170
3220824579
3220830255
3220836542
3220841486
3220847650
3220853143
3220858820
3220865655
3220871088
3220876642
3220882501
3220887262
3220893487
3220899957
3220905267
3220911127
3220916742
3220922174
3220926019
3220932000
3220938470
3220943841
3220949640
3220955011
3220961236
3220965204
3220971673
3220976373
3220983514
3220990533
3220996331
3221003228
3221008721
3221014032
3221019586
3221026177
3221030145
3221036553
3221042413
3221047235
3221053155
3221057916
3221062066
3221069818
3221075738
3221081658
3221087090
3221092706
3221096734
3221102898
3221109673
3221115044
3221120782
3221126092
3221132134
3221137627
3221142998
3221148431
3221154046
3221158929
3221168450
3221174187
3221179681
3221185296
3221191094
3221196709
3221203545
3221209954
3221215691
3221221917
3221227715
3221232720
3221237786
3221244317
3221252861
3221257012
3221263604
3221267510
3221274407
3221280083
3221285027
3221292473
3221297844
3221303948
3221309197
3221314324
3221319207
3221324639
3221330498
3221336113
3221340935
3221346489
3221352043
3221357475
3221362724
3221369866
3221375298
3221380974
3221386833
3221391045
3221397881
3221401970
3221408562
3221415154
3221419975
3221424187
3221431694
3221436882
3221442802
3221448235
3221453850
3221459221
3221464592
3221469719
3221474968
3221480095
3221485466
3221490776
3221497551
3221502678
3221506706
3221514213
3221520378
3221525444
3221530388
3221538383
3221543510
3221548881
3221555229
3221560722
3221565910
3221571403
3221576957
3221582389
3221589042
3221594291
3221600517
3221605217
3221611198
3221616874
3221622428
3221628776
3221634025
3221639823
3221645378
3221651054
3221655204
3221661735
3221668754
3221673515
3221679130
3221685355
3221690788
3221696159
3221702079
3221707755
3221714896
3221718864
3221726310
3221730949
3221736625
3221742789
3221749198
3221756583
3221762260
3221768241
3221773734
3221779716
3221783622
3221790092
3221795951
3221801627
3221805289
3221811027
3221816337
3221821891
3221827567
3221833793
3221839347
3221844535
3221851737
3221856620
3221862723
3221867667
3221873954
3221878714
3221884757
3221890433
3221895926
3221901541
3221906851
3221912467
3221918143
3221925772
3221930106
3221936637
3221940726
3221947562
3221952262
3221960318
3221965811
3221971182
3221976737
3221982230
3221988089
3221993582
3221998892
3222004385
3222010733
3222016531
3222021170
3222027029
3222031729
3222037955
3222044424
3222049246
3222057730
3222063711
3222068106
3222075003
3222078970
3222085806
3222089834
3222097220
3222103201
3222108023
3222112845
3222118887
3222123892
3222130118
3222137198
3222142874
3222148123
3222153799
3222159414
3222164785
3222169851
3222178152
3222182913
3222187002
3222194265
3222198965
3222205069
3222210684
3222217459
3222222158
3222228506
3222232962
3222238943
3222244192
3222249868
3222255728
3222262136
3222268118
3222272268
3222279958
3222284292
3222291799
3222297231
3222303579
3222311025
3222314809
3222321951
3222326589
3222332265
3222338308
3222344045
3222349111
3222354116
3222360281
3222364370
3222370473
3222376150
3222380422
3222385915
3222391653
3222396291
3222402212
3222407766
3222413747
3222417959
3222424062
3222430715
3222436086
3222441945
3222447316
3222452504
3222457998
3222464528
3222468740
3222475881
3222480092
3222487050
3222491506
3222497548
3222502553
3222508718
3222514333
3222519887
3222526540
3222531728
3222537160
3222541127
3222548146
3222554677
3222560170
3222565663
3222571034
3222576283
3222582692
3222589894
3222595326
3222601552
3222605519
3222611501
3222616505
3222622487
3222626881
3222634938
3222641591
3222645802
3222652272
3222656300
3222663319
3222667409
3222673390
3222680287
3222685048
3222690358
3222696461
3222701710
3222707692
3222713429
3222718800
3222724659
3222730031
3222736500
3222741139
3222747364
3222753407
3222760182
3222764576
3222770741
3222776722
3222782765
3222789051
3222793507
3222799916
3222804920
3222812367
3222819081
3222823841
3222829273
3222835865
3222841603
3222847157
3222852589
3222857960
3222862660
3222868824
3222874928
3222880482
3222887196
3222892078
3222898975
3222903492
3222909534
3222914234
3222920338
3222925220
3222931568
3222938465
3222943836
3222947803
3222953846
3222959461
3222964954
3222970569
3222977772
3222983082
3222989002
3222995228
3223000721
3223005481
3223010731
3223016895
3223022266
3223027637
3223034412
3223039844
3223045093
3223050525
3223056507
3223060657
3223067737
3223071766
3223078785
3223083667
3223089710
3223094471
3223100757
3223107837
3223114246
3223119678
3223125476
3223130481
3223135791
3223141834
3223146167
3223153430
3223158740
3223163623
3223167774
3223175098
3223180042
3223186145
3223191577
3223197620
3223203479
3223208850
3223214099
3223219653
3223225818
3223231372
3223236926
3223240955
3223248523
3223253467
3223259387
3223264575
3223269519
3223277881
3223283496
3223289966
3223294421
3223300525
3223307239
3223313525
3223320178
3223325854
3223331714
3223337390
3223341784
3223348864
3223354480
3223362353
3223368151
3223372241
3223379199
3223384082
3223389209
3223394458
3223400073
3223406970
3223412219
3223417895
3223423144
3223429370
3223434680
3223440234
3223445971
3223451220
3223456713
3223462084
3223467394
3223472826
3223477953
3223483386
3223489489
3223493639
3223500903
3223505114
3223511523
3223515612
3223523608
3223529040
3223533984
3223539416
3223545519
3223551623
3223557116
3223562487
3223567736
3223573839
3223577990
3223585375
3223589281
3223595751
3223601610
3223606676
3223611864
3223617785
3223623949
3223628466
3223635424
3223642260
3223648058
3223654345
3223660509
3223666674
3223670824
3223676744
3223682848
3223687426
3223693651
3223700426
3223704515
3223711046
3223716173
3223722704
3223727770
3223733263
3223738756
3223744493
3223750536
3223754442
3223761400
3223765917
3223772203
3223779527
3223784654
3223790025
3223795885
3223801927
3223806200
3223813524
3223820116
3223824754
3223830492
3223836656
3223841173
3223847520
3223853014
3223860338
3223866991
3223872911
3223879136
3223884385
3223888841
3223893602
3223901292
3223906175
3223912217
3223917100
3223922715
3223927232
3223932664
3223938463
3223943406
3223949632
3223954515
3223960557
3223967088
3223972642
3223976609
3223984544
3223989366
3223994615
3224000108
3224005601
3224011582
3224017625
3224022508
3224026841
3224033921
3224037889
3224045152
3224051194
3224056748
3224062608
3224068894
3224074387
3224079881
3224086350
3224091843
3224096238
3224101548
3224107285
3224112656
3224118577
3224123948
3224130051
3224134385
3224140366
3224145737
3224153184
3224158738
3224164963
3224169053
3224176926
3224182603
3224187974
3224194016
3224199448
3224204514
3224209702
3224216233
3224220505
3224227463
3224231431
3224238572
3224243882
3224248581
3224255173
3224259934
3224264756
3224270798
3224275498
3224281662
3224288254
3224293747
3224298935
3224304306
3224309922
3224315415
3224320359
3224327133
3224335129
3224339462
3224345810
3224352463
3224357834
3224362106
3224370651
3224376999
3224382309
3224387253
3224393051
3224399277
3224404770
3224411240
3224418930
3224422958
3224430405
3224435165
3224442245
3224446579
3224453903
3224458114
3224464584
3224469223
3224474411
3224480392
3224484237
3224491012
3224496811
3224501144
3224505722
3224511825
3224516708
3224522812
3224528061
3224534042
3224540390
3224545883
3224551132
3224556625
3224561081
3224566391
3224572250
3224577621
3224583358
3224588790
3224595199
3224599166
3224605941
3224609909
3224616378
3224622055
3224628097
3224630783
3224638595
3224641219
3224649032
3224651595
3224660079
3224666061
3224671432
3224677108
3224682296
3224687179
3224694015
3224701583
3224708175
3224714156
3224718551
3224724349
3224729903
3224735335
3224741439
3224747420
3224751693
3224758895
3224764266
3224771346
3224776900
3224782516
3224788314
3224793807
3224799361
3224803389
3224810531
3224815108
3224821883
3224828048
3224833541
3224838240
3224844344
3224851790
3224854781
3224862227
3224869246
3224874556
3224880355
3224887130
3224893538
3224899275
3224905318
3224911544
3224916976
3224923323
3224929366
3224935774
3224941268
3224947066
3224952803
3224958113
3224963851
3224968855
3224975447
3224980574
3224986556
3224992049
3224996138
3225001875
3225007857
3225013289
3225020003
3225025618
3225031294
3225036482
3225043318
3225047652
3225054793
3225060530
3225066328
3225070662
3225077742
3225083113
3225087935
3225094649
3225099959
3225105452
3225111189
3225116987
3225122297
3225127974
3225132856
3225139631
3225144697
3225151228
3225156904
3225161116
3225169966
3225176435
3225180464
3225187605
3225193952
3225199263
3225205793
3225212446
3225217329
3225223005
3225229048
3225233808
3225240522
3225245405
3225251753
3225257002
3225262922
3225268903
3225274030
3225279768
3225286115
3225291792
3225297651
3225303388
3225308454
3225314619
3225322919
3225328229
3225336957
3225343183
3225347394
3225354108
3225361555
3225367841
3225374006
3225379987
3225385908
3225393598
3225399274
3225406659
3225412336
3225417707
3225423383
3225428266
3225434858
3225440351
3225446454
3225452619
3225457929
3225461774
3225468854
3225473676
3225480634
3225486249
3225491315
3225496137
3225502179
3225506574
3225511823
3225517194
3225522992
3225527936
3225533307
3225538434
3225543988
3225550092
3225555524
3225559918
3225566144
3225571149
3225577069
3225581647
3225587872
3225592816
3225600079
3225605450
3225610883
3225616620
3225622052
3225627545
3225633527
3225639081
3225645367
3225650067
3225656293
3225660931
3225667096
3225673565
3225679730
3225685650
3225690960
3225696393
3225701581
3225706952
3225712506
3225718365
3225723797
3225729290
3225734662
3225742047
3225749249
3225753582
3225760540
3225764935
3225771954
3225777691
3225783184
3225790142
3225794110
3225800823
3225806866
3225813091
3225817974
3225824017
3225828655
3225835552
3225842144
3225848614
3225854046
3225859600
3225866436
3225870586
3225877605
3225881634
3225887371
3225891827
3225900127
3225904217
3225910076
3225915325
3225920940
3225926922
3225932415
3225937969
3225944561
3225949200
3225954265
3225960186
3225967327
3225971660
3225978802
3225983928
3225990459
3225997173
3226001201
3226008159
3226014141
3226019695
3226026714
3226031963
3226037517
3226043621
3226050335
3226056133
3226060955
3226067241
3226073772
3226079448
3226084331
3226090801
3226096904
3226103740
3226109722
3226114482
3226121501
3226127483
3226135356
3226139629
3226146892
3226151775
3226157878
3226164287
3226170635
3226176006
3226183330
3226189738
3226195415
3226200908
3226206218
3226212932
3226218364
3226222880
3226229228
3226233806
3226239177
3226245097
3226250773
3226256267
3226261149
3226267009
3226273356
3226279338
3226285502
3226289226
3226295939
3226301921
3226307292
3226312968
3226321147
3226324931
3226331096
3226337809
3226343303
3226349406
3226354228
3226360331
3226364970
3226370341
3226376994
3226382914
3226387492
3226392985
3226398600
3226404093
3226409526
3226415385
3226421305
3226427043
3226432170
3226438944
3226443949
3226448832
3226454325
3226459391
3226464640
3226469645
3226476176
3226479960
3226486185
3226490519
3226497111
3226502543
3226508768
3226513163
3226519205
3226525614
3226530985
3226535685
3226541239
3226547465
3226553324
3226557841
3226563151
3226568949
3226574259
3226579874
3226585550
3226592081
3226596293
3226603434
3226608255
3226614176
3226618753
3226624796
3226629801
3226636148
3226641947
3226647989
3226654032
3226659464
3226665384
3226669535
3226677408
3226685038
3226690531
3226695963
3226701517
3226707804
3226711954
3226718241
3226725015
3226730936
3226736307
3226741190
3226746073
3226751993
3226756876
3226764200
3226770181
3226775491
3226780435
3226785928
3226791422
3226796976
3226803018
3226809122
3226813699
3226817606
3226825113
3226830545
3226836587
3226843240
3226848611
3226853860
3226859415
3226865823
3226871988
3226876809
3226880960
3226888650
3226895730
3226901590
3226907022
3226913430
3226919656
3226924356
3226933023
3226938638
3226943399
3226948159
3226954751
3226960000
3226966165
3226972329
3226977761
3226984170
3226989724
3226995278
3226999429
3227006204
3227010415
3227018106
3227022927
3227029824
3227035012
3227041177
3227047097
3227051858
3227056924
3227063027
3227069009
3227074502
3227080178
3227085549
3227091164
3227096719
3227102212
3227108010
3227114541
3227118813
3227124490
3227128640
3227136208
3227140298
3227147133
3227153664
3227158913
3227163674
3227169533
3227175332
3227181069
3227187295
3227192727
3227198708
3227204323
3227210244
3227216469
3227221901
3227227517
3227234047
3227239113
3227243752
3227249672
3227255410
3227261147
3227265969
3227273476
3227278115
3227283303
3227289040
3227294716
3227300148
3227305763
3227311562
3227318581
3227323586
3227329506
3227334877
3227340065
3227345009
3227350502
3227358803
3227364601
3227370766
3227376076
3227381691
3227388039
3227394752
3227401039
3227406105
3227412819
3227417396
3227423134
3227428810
3227434547
3227443031
3227448402
3227454567
3227460304
3227465797
3227470253
3227477211
3227483497
3227488746
3227494850
3227499061
3227505104
3227510475
3227517372
3227521949
3227528846
3227534462
3227539222
3227543434
3227550575
3227555580
3227561805
3227568397
3227573707
3227578163
3227584144
3227590248
3227595802
3227601112
3227606849
3227612708
3227617957
3227623817
3227627967
3227634925
3227639259
3227646095
3227651588
3227657752
3227663306
3227668006
3227673927
3227678565
3227683997
3227690406
3227696510
3227701942
3227707984
3227712012
3227720008
3227722938
3227731727
3227736976
3227744117
3227748389
3227754188
3227760352
3227765540
3227771216
3227777015
3227783057
3227787391
3227793067
3227796851
3227803809
3227808448
3227814551
3227819983
3227825965
3227829749
3227835242
3227841285
3227846411
3227851355
3227857581
3227864356
3227868628
3227874732
3227878577
3227884803
3227889258
3227895911
3227900916
3227907996
3227913550
3227917395
3227924109
3227928381
3227935645
3227941870
3227947913
3227953833
3227959204
3227964636
3227968543
3227975928
3227980994
3227986975
3227992224
3227997778
3228002966
3228007910
3228012305
3228018225
3228024084
3228028479
3228035193
3228039099
3228044836
3228048681
3228055884
3228062414
3228068518
3228072424
3228078161
3228084021
3228088965
3228093115
3228098913
3228104956
3228110449
3228115271
3228120153
3228126196
3228130163
3228137121
3228142981
3228148962
3228152746
3228158544
3228164099
3228169165
3228174230
3228179418
3228185644
3228189733
3228195349
3228201269
3228205663
3228209387
3228216528
3228223913
3228229467
3228235510
3228241064
3228246984
3228251989
3228256506
3228263036
3228269384
3228274633
3228280737
3228285741
3228291112
3228297460
3228303258
3228309667
3228313879
3228320714
3228327795
3228333593
3228338537
3228344030
3228350622
3228355138
3228360998
3228367711
3228371496
3228377965
3228384618
3228390477
3228395971
3228401464
3228408300
3228413732
3228420385
3228428075
3228432347
3228439611
3228445897
3228450231
3228457921
3228464147
3228471105
3228478429
3228484410
3228489232
3228495946
3228501927
3228508397
3228512547
3228519444
3228524938
3228530736
3228537389
3228542577
3228549168
3228553685
3228561253
3228566624
3228570836
3228577794
3228583531
3228588292
3228594273
3228598546
3228605504
3228611241
3228616734
3228622533
3228628331
3228634129
3228639256
3228644749
3228650731
3228656834
3228661595
3228668004
3228673741
3228678135
3228683507
3228691136
3228697300
3228703038
3228708470
3228713780
3228718663
3228726719
3228731602
3228739598
3228744847
3228751255
3228757054
3228763279
3228768833
3228774510
3228778965
3228785801
3228791783
3228796910
3228802708
3228809117
3228813267
3228819554
3228825962
3228831272
3228838657
3228844639
3228850498
3228855686
3228861729
3228867832
3228873386
3228880650
3228886326
3228892551
3228897007
3228900669
3228905491
3228909641
3228914890
3228919895
3228922825
3228928989
3228933567
3228939304
3228944187
3228948459
3228952915
3228955784
3228960483
3228964329
3228968662
3228973362
3228977817
3228981540
3228985874
3228990146
3228994175
3228998874
3229002536
3229007358
3229011387
3229015598
3229018650
3229023838
3229026950
3229031955
3229037082
3229041050
3229045078
3229049594
3229053928
3229058322
3229062656
3229066196
3229071018
3229075473
3229080051
3229083164
3229088413
3229092868
3229097080
3229101108
3229106296
3229111789
3229116001
3229119724
3229123813
3229128879
3229133518
3229138095
3229143344
3229147128
3229153476
3229156650
3229162936
3229167575
3229173679
3229177768
3229181674
3229185886
3229188998
3229194614
3229198825
3229204013
3229208774
3229212741
3229215976
3229220065
3229224765
3229230441
3229235507
3229239963
3229244052
3229248202
3229252170
3229255954
3229260531
3229266269
3229272189
3229276156
3229282382
3229284457
3229291476
3229297213
3229302340
3229306552
3229311557
3229315402
3229319003
3229324984
3229329501
3229337619
3229342135
3229346591
3229351596
3229354769
3229359591
3229363864
3229370516
3229372775
3229379611
3229384188
3229388949
3229393405
3229397799
3229402743
3229406100
3229410983
3229415316
3229419467
3229422701
3229428072
3229431674
3229437228
3229440890
3229445590
3229450716
3229454989
3229459872
3229464510
3229470126
3229475008
3229479159
3229483797
3229488375
3229493014
3229497469
3229502108
3229506075
3229511202
3229516146
3229521090
3229525484
3229528902
3229536226
3229540682
3229546297
3229551668
3229555697
3229562716
3229568392
3229574251
3229581514
3229587862
3229593477
3229597628
3229602327
3229607454
3229613009
3229617342
3229623446
3229628145
3229632601
3229636263
3229642000
3229647676
3229652376
3229657503
3229663301
3229667025
3229672823
3229677828
3229682405
3229689058
3229693086
3229697542
3229703340
3229707063
3229712740
3229718294
3229722322
3229727693
3229734834
3229740450
3229744356
3229750642
3229755464
3229761018
3229767000
3229771883
3229777986
3229783968
3229788911
3229794405
3229800447
3229805086
3229810823
3229818574
3229824434
3229828462
3229834688
3229838960
3229844697
3229848726
3229854158
3229858552
3229865205
3229870393
3229874727
3229879243
3229883577
3229889436
3229893831
3229897676
3229903291
3229909150
3229912629
3229918061
3229924104
3229928071
3229932832
3229936128
3229942475
3229947786
3229952302
3229956819
3229962373
3229967561
3229972505
3229977876
3229983613
3229987580
3229993257
3229998628
3230004182
3230008393
3230013337
3230018769
3230024323
3230028779
3230035066
3230040070
3230045258
3230050385
3230055451
3230060639
3230064790
3230072175
3230077241
3230084199
3230087983
3230094880
3230100922
3230105866
3230110566
3230116913
3230122285
3230127106
3230133271
3230136994
3230141266
3230147614
3230153779
3230160004
3230164887
3230171296
3230177643
3230182038
3230186676
3230190949
3230196991
3230203827
3230209443
3230214936
3230219208
3230226960
3230235077
3230239655
3230244599
3230250458
3230254792
3230260956
3230265961
3230273468
3230278961
3230285919
3230292206
3230296173
3230302643
3230308930
3230314240
3230318451
3230324005
3230329620
3230334564
3230338959
3230343597
3230351593
3230355560
3230360748
3230364227
3230369904
3230376251
3230380463
3230387238
3230392609
3230397064
3230402496
3230407745
3230411285
3230417938
3230423004
3230427826
3230433441
3230438324
3230444061
3230448456
3230454254
3230458832
3230463531
3230471405
3230476227
3230482208
3230487701
3230492828
3230498687
3230502411
3230509735
3230514557
3230519989
3230525238
3230531097
3230537689
3230544281
3230550811
3230557464
3230564056
3230568878
3230574981
3230579803
3230585601
3230590362
3230594634
3230601104
3230604522
3230612579
3230618743
3230624297
3230630096
3230633758
3230638885
3230645782
3230652374
3230658538
3230662933
3230667815
3230673797
3230679412
3230682586
3230689544
3230694305
3230701446
3230708160
3230712188
3230717986
3230722320
3230728789
3230733550
3230740264
3230743499
3230751006
3230753692
3230761687
3230764739
3230772429
3230778045
3230782561
3230787688
3230793181
3230797149
3230802520
3230807097
3230812346
3230818084
3230822722
3230827361
3230830901
3230837615
3230843291
3230848967
3230855681
3230860381
3230865508
3230869597
3230875945
3230879424
3230886016
3230890288
3230897429
3230903105
3230907866
3230913115
3230919951
3230924346
3230930266
3230935271
3230940459
3230945281
3230950652
3230956572
3230962004
3230968413
3230972624
3230980131
3230982268
3230987822
3230992888
3230999663
3231004179
3231010405
3231014982
3231019987
3231026457
3231033232
3231039824
3231046354
3231051054
3231055144
3231061613
3231067351
3231072661
3231077116
3231082426
3231088591
3231093290
3231099394
3231103666
3231108549
3231114531
3231121550
3231127043
3231130217
3231137236
3231141203
3231146940
3231150785
3231158537
3231164396
3231170683
3231177519
3231183073
3231188993
3231192838
3231197660
3231205473
3231211942
3231217802
3231222563
3231229704
3231235136
3231239896
3231245451
3231251432
3231257291
3231262418
3231267606
3231273222
3231277311
3231285001
3231289579
3231294828
3231299772
3231305692
3231309598
3231316617
3231323148
3231327543
3231332242
3231338041
3231342618
3231348661
3231353422
3231358426
3231362760
3231367276
3231373807
3231378446
3231383817
3231388578
3231393522
3231399015
3231404935
3231411161
3231416349
3231421720
3231426358
3231433316
3231437772
3231443814
3231450040
3231455289
3231459195
3231464383
3231468411
3231475003
3231479947
3231485623
3231490811
3231495633
3231502042
3231507535
3231516629
3231521329
3231526822
3231530911
3231534451
3231539700
3231545987
3231552152
3231557462
3231562711
3231568021
3231572598
3231578336
3231583951
3231589871
3231595303
3231600552
3231604886
3231610867
3231616727
3231620999
3231626309
3231633511
3231638394
3231643033
3231649746
3231656338
3231662137
3231668789
3231675747
3231680935
3231686917
3231692410
3231697537
3231703762
3231709683
3231714444
3231719754
3231726284
3231732083
3231738674
3231743191
3231750515
3231757168
3231761563
3231765957
3231770474
3231776028
3231781094
3231786282
3231792446
3231798794
3231803982
3231808926
3231813686
3231818203
3231825222
3231830654
3231836453
3231841335
3231847134
3231852139
3231858486
3231862576
3231870205
3231875698
3231881313
3231886318
3231892055
3231898037
3231902920
3231910244
3231915249
3231920803
3231927639
3231931606
3231936855
3231940822
3231946010
3231951931
3231958095
3231961941
3231968044
3231973171
3231978359
3231983425
3231989833
3231994716
3231999660
3232005214
3232012111
3232016384
3232022548
3232029262
3232034694
3232040493
3232045436
3232049587
3232055629
3232060390
3232067531
3232074001
3232078700
3232084682
3232090175
3232095668
3232099758
3232104823
3232110561
3232118068
3232122279
3232127773
3232132289
3232138210
3232142604
3232149318
3232155177
3232159511
3232166042
3232170558
3232176601
3232181422
3232184657
3232191981
3232196742
3232203090
3232209926
3232213832
3232219935
3232224940
3232230128
3232235805
3232243922
3232249476
3232254725
3232259486
3232265162
3232269862
3232275782
3232280726
3232285731
3232290553
3232297084
3232301661
3232306849
3232312831
3232316920
3232321925
3232327052
3232332240
3232336024
3232342128
3232346827
3232352198
3232357447
3232361842
3232368189
3232373316
3232378260
3232382594
3232389124
3232394618
3232399806
3232405482
3232409388
3232415064
3232420008
3232424952
3232430811
3232435450
3232440150
3232446558
3232449305
3232455958
3232460047
3232465418
3232471705
3232476527
3232482508
3232487574
3232493677
3232497095
3232503443
3232507532
3232514002
3232518213
3232525171
3232531580
3232537378
3232540247
3232548609
3232552759
3232559473
3232563868
3232570582
3232575464
3232581385
3232585962
3232590662
3232597010
3232599085
3232607080
3232610804
3232617640
3232624597
3232629785
3232633264
3232639063
3232643213
3232650415
3232654688
3232660486
3232664881
3232671594
3232676355
3232681360
3232687403
3232691309
3232697962
3232701807
3232709436
3232715906
3232722376
3232727869
3232732019
3232738123
3232743555
3232746362
3232755701
3232760461
3232765771
3232771936
3232776941
3232781213
3232787561
3232791650
3232796533
3232803796
3232810388
3232814599
3232820398
3232824487
3232830285
3232834680
3232841150
3232846643
3232852197
3232857690
3232863427
3232867578
3232872216
3232878503
3232882898
3232888269
3232892236
3232900171
3232904077
3232910424
3232913110
3232919946
3232924340
3232930383
3232935022
3232942407
3232946557
3232953759
3232958093
3232964074
3232968225
3232974023
3232979943
3232985009
3232991235
3232997094
3233003503
3233008691
3233014672
3233021569
3233027856
3233033898
3233039330
3233044823
3233051354
3233056969
3233062096
3233067162
3233074425
3233079613
3233086266
3233090905
3233095727
3233102013
3233107506
3233110497
3233119347
3233123864
3233130883
3233135155
3233141686
3233146081
3233152123
3233156334
3233162865
3233169335
3233175255
3233179650
3233185814
3233192284
3233198754
3233205712
3233210167
3233217553
3233223900
3233229149
3233235497
3233239647
3233242455
3233250572
3233253380
3233260826
3233266197
3233271752
3233277794
3233284325
3233289147
3233295799
3233300621
3233305687
3233312828
3233317894
3233321068
3233327721
3233332481
3233338890
3233341698
3233349022
3233354698
3233362511
3233367088
3233372215
3233378502
3233383629
3233387230
3233393089
3233399071
3233404930
3233409508
3233415306
3233420982
3233425621
3233431236
3233436302
3233443077
3233448265
3233453209
3233457542
3233463951
3233467796
3233474205
3233479026
3233484214
3233489891
3233495140
3233499961
3233505272
3233509361
3233515831
3233520225
3233525779
3233530662
3233535850
3233542625
3233546592
3233552757
3233556724
3233562950
3233568199
3233573326
3233578880
3233584129
3233589805
3233594810
3233598899
3233605186
3233609641
3233615806
3233620628
3233625694
3233631736
3233636924
3233643028
3233647971
3233653403
3233657737
3233665244
3233669028
3233678123
3233682456
3233688315
3233692405
3233698752
3233703208
3233709739
3233714499
3233720847
3233725059
3233729453
3233736350
3233740012
3233746238
3233751120
3233756186
3233763572
3233768027
3233773642
3233778586
3233783469
3233788352
3233792868
3233799338
3233803916
3233810202
3233814414
3233820822
3233825156
3233830954
3233835227
3233840110
3233848288
3233853110
3233859641
3233866171
3233870993
3233876608
3233882468
3233887900
3233892966
3233899741
3233905783
3233911643
3233915976
3233920554
3233926962
3233930319
3233939719
3233946432
3233952170
3233958273
3233963156
3233969321
3233974509
3233979208
3233985617
3233991354
3233998556
3234002829
3234008993
3234013510
3234020102
3234024557
3234030844
3234037985
3234043356
3234047629
3234053793
3234058066
3234064535
3234068869
3234073080
3234079672
3234085043
3234091269
3234097372
3234101950
3234107992
3234113363
3234119345
3234124227
3234130636
3234135885
3234140280
3234146444
3234150595
3234156271
3234161886
3234166952
3234174093
3234179342
3234184896
3234189901
3234195577
3234199667
3234205770
3234209799
3234217611
3234223531
3234227987
3234231588
3234238180
3234242879
3234250204
3234254964
3234261251
3234266256
3234273824
3234276571
3234283224
3234287557
3234293905
3234298055
3234304098
3234310079
3234315755
3234321248
3234325277
3234331014
3234334737
3234341146
3234346700
3234351827
3234357503
3234362630
3234367818
3234373983
3234378927
3234383992
3234388265
3234393331
3234400777
3234405965
3234410482
3234417379
3234422505
3234428060
3234433858
3234438680
3234445272
3234452474
3234457356
3234463643
3234468282
3234474019
3234480123
3234484639
3234492879
3234498128
3234506001
3234511067
3234515645
3234522298
3234526570
3234532063
3234537923
3234541158
3234549580
3234552327
3234559102
3234563863
3234570271
3234575215
3234579976
3234585286
3234592488
3234596944
3234602193
3234607869
3234613728
3234617940
3234623189
3234629048
3234635212
3234639363
3234645955
3234651814
3234657429
3234663960
3234669697
3234675373
3234681294
3234688862
3234694111
3234700642
3234706135
3234713459
3234719075
3234726521
3234728962
3234737446
3234743672
3234748493
3234755573
3234761311
3234767048
3234772968
3234779133
3234784565
3234788899
3234796162
3234799091
3234806172
3234810627
3234816364
3234823322
3234829243
3234835468
3234842793
3234847431
3234852741
3234858417
3234862507
3234869160
3234873737
3234880390
3234885273
3234890278
3234895527
3234900593
3234905842
3234910847
3234916828
3234923725
3234926533
3234933735
3234937946
3234944111
3234948261
3234954120
3234958637
3234965595
3234969989
3234975849
3234980060
3234985981
3234990131
3234995197
3235000385
3235008258
3235014850
3235017475
3235025959
3235031024
3235036029
3235039203
3235046527
3235052509
3235059528
3235063434
3235070453
3235074970
3235081622
3235086505
3235093158
3235099750
3235105975
3235111835
3235117694
3235122211
3235129108
3235133868
3235140277
3235145099
3235151569
3235155536
3235162799
3235166827
3235172809
3235177203
3235183002
3235187579
3235195697
3235199847
3235204791
3235210895
3235214801
3235221759
3235227008
3235233233
3235240680
3235245990
3235251056
3235256122
3235258929
3235266070
3235270648
3235277545
3235282122
3235289202
3235292010
3235298907
3235303302
3235308856
3235314532
3235320025
3235325396
3235329974
3235337420
3235343096
3235348223
3235353411
3235358294
3235364215
3235369158
3235375445
3235381182
3235386370
3235392291
3235396868
3235402117
3235408038
3235412127
3235419207
3235425982
3235430376
3235434832
3235441607
3235446551
3235451495
3235456560
3235461504
3235468462
3235473894
3235477129
3235484087
3235489641
3235495989
3235500139
3235505877
3235511614
3235517656
3235522295
3235527300
3235534075
3235539202
3235544146
3235550005
3235555376
3235563006
3235569963
3235577715
3235586199
3235593645
3235600969
3235608843
3235617266
3235625200
3235632280
3235639482
3235645525
3235651323
3235657793
3235664140
3235670244
3235678301
3235683428
3235691606
3235697099
3235703996
3235711015
3235718889
3235725542
3235731950
3235739275
3235745439
3235751848
3235758256
3235764177
3235771623
3235779253
3235785173
3235792253
3235798234
3235804643
3235810258
3235818071
3235823015
3235827958
3235831498
3235836076
3235839555
3235844194
3235848405
3235853166
3235859452
3235864091
3235867936
3235871415
3235876054
3235880632
3235886064
3235890641
3235896257
3235900163
3235905046
3235909013
3235913896
3235918290
3235923173
3235928361
3235933183
3235938005
3235942094
3235945390
3235951066
3235955827
3235962113
3235967973
3235973405
3235978227
3235981278
3235986344
3235991715
3235996049
3236000871
3236005814
3236009415
3236014420
3236019181
3236025407
3236031388
3236035538
3236041093
3236046036
3236050187
3236054948
3236059525
3236064225
3236070573
3236074479
3236079850
3236083695
3236088334
3236093278
3236098038
3236105851
3236111039
3236116837
3236122269
3236127457
3236132096
3236137162
3236141922
3236149430
3236154923
3236160477
3236166825
3236171891
3236177689
3236184525
3236189896
3236196427
3236201615
3236205216
3236211441
3236215103
3236220597
3236225662
3236230850
3236235367
3236240311
3236244950
3236249588
3236252945
3236258988
3236264542
3236270035
3236273941
3236280045
3236285843
3236290848
3236295731
3236301285
3236308304
3236312882
3236318558
3236323074
3236328201
3236333633
3236338577
3236343216
3236349075
3236354446
3236359512
3236364883
3236369400
3236374710
3236379959
3236384781
3236391495
3236396744
3236401138
3236405289
3236412185
3236415603
3236422500
3236428482
3236434524
3236438003
3236444656
3236450332
3236455154
3236461380
3236466507
3236473098
3236478347
3236482681
3236488967
3236493789
3236498428
3236502945
3236508010
3236513992
3236519302
3236524612
3236529129
3236534805
3236539627
3236545181
3236549575
3236554458
3236560806
3236565444
3236570754
3236575515
3236582595
3236588149
3236592849
3236597610
3236603591
3236608169
3236614639
3236620254
3236625930
3236632095
3236638381
3236644668
3236648879
3236655593
3236661819
3236667800
3236671584
3236678359
3236683730
3236690444
3236695083
3236701797
3236708205
3236712844
3236717788
3236721999
3236728896
3236733596
3236738479
3236746047
3236751418
3236755080
3236761184
3236767226
3236771621
3236776931
3236782363
3236789016
3236793776
3236798293
3236802932
3236807753
3236812941
3236820021
3236823989
3236828871
3236833571
3236838820
3236842482
3236849257
3236854445
3236859938
3236864028
3236867873
3236873488
3236878554
3236884963
3236889296
3236896010
3236902113
3236906325
3236912245
3236916823
3236922743
3236931410
3236936964
3236942519
3236948317
3236953810
3236959242
3236964674
3236970412
3236975233
3236981337
3236986647
3236990492
3236995619
3237002638
3237007338
3237013075
3237017531
3237023512
3237028822
3237033339
3237037550
3237043776
3237048231
3237054518
3237058485
3237064100
3237069777
3237074293
3237080946
3237086866
3237092359
3237098829
3237104689
3237109327
3237115065
3237120924
3237125807
3237130873
3237136915
3237142591
3237146498
3237153333
3237158582
3237163404
3237169325
3237173597
3237178968
3237184034
3237189100
3237194288
3237200514
3237207777
3237212232
3237218519
3237222486
3237228284
3237233656
3237238233
3237244398
3237249158
3237255689
3237262098
3237267591
3237272169
3237279249
3237284009
3237290723
3237295484
3237300489
3237306714
3237311841
3237316358
3237322156
3237326124
3237331678
3237336255
3237342664
3237348157
3237354261
3237360608
3237367505
3237373670
3237378003
3237383741
3237387708
3237393567
3237400586
3237406507
3237410901
3237416883
3237421094
3237427442
3237432874
3237440015
3237445691
3237452954
3237459241
3237464856
3237470349
3237474317
3237479199
3237487134
3237492688
3237497449
3237503369
3237510388
3237514722
3237519727
3237524243
3237530530
3237534985
3237540540
3237544324
3237551038
3237556164
3237562268
3237567761
3237572644
3237578259
3237582959
3237589490
3237595593
3237601513
3237608532
3237615796
3237623730
3237628308
3237634839
3237640088
3237646374
3237655468
3237660168
3237666394
3237672680
3237678173
3237682812
3237688977
3237694226
3237700451
3237704663
3237710827
3237714611
3237720471
3237724926
3237730786
3237736340
3237742993
3237748974
3237753063
3237758862
3237764233
3237768627
3237776928
3237782604
3237787670
3237793896
3237798229
3237803661
3237807507
3237813305
3237820263
3237825817
3237830639
3237835278
3237841320
3237846386
3237851269
3237857250
3237863476
3237867077
3237872448
3237877209
3237883312
3237888622
3237892772
3237898449
3237904186
3237908642
3237913463
3237917614
3237924389
3237930675
3237934581
3237940136
3237945629
3237951244
3237956432
3237963573
3237968029
3237975475
3237978466
3237986705
3237989696
3237996105
3238002758
3238008129
3238014049
3238018199
3238025341
3238030101
3238035716
3238041027
3238045726
3238050121
3238057445
3238062389
3238067272
3238071788
3238078075
3238081859
3238088573
3238094920
3238100719
3238108409
3238115062
3238120189
3238123485
3238134837
3238140758
3238147166
3238152476
3238159251
3238164928
3238170177
3238177318
3238182261
3238188426
3238192882
3238199901
3238202830
3238209788
3238213572
3238219615
3238225535
3238234263
3238237315
3238245616
3238248668
3238256419
3238260997
3238266368
3238272105
3238277659
3238283641
3238288829
3238295176
3238300547
3238304881
3238309764
3238314952
3238321299
3238326975
3238330088
3238338816
3238343760
3238348582
3238353831
3238359019
3238363658
3238370554
3238375132
3238380747
3238386363
3238391734
3238396311
3238401255
3238409129
3238414622
3238421702
3238426646
3238431834
3238437083
3238442637
3238447214
3238453989
3238461680
3238466990
3238471140
3238477976
3238482554
3238487803
3238492014
3238499705
3238504893
3238512461
3238516428
3238523142
3238527353
3238532236
3238537302
3238542917
3238548838
3238556833
3238561350
3238566111
3238572031
3238577280
3238580088
3238586313
3238591989
3238598886
3238603525
3238609995
3238616037
3238620432
3238624887
3238631662
3238637949
3238643625
3238648325
3238654245
3238659738
3238665109
3238670969
3238676889
3238683237
3238689645
3238695749
3238701913
3238709543
3238714120
3238720712
3238726266
3238732675
3238738229
3238745187
3238748666
3238757761
3238764108
3238768686
3238775949
3238781076
3238786264
3238791330
3238795602
3238800973
3238805063
3238811227
3238816842
3238823129
3238827035
3238832711
3238836984
3238843393
3238848703
3238853158
3238857187
3238863839
3238868417
3238875131
3238881601
3238887338
3238893869
3238899545
3238906137
3238912179
3238918344
3238921701
3238928903
3238933602
3238939034
3238944283
3238949716
3238956002
3238963998
3238966988
3238973702
3238979806
3238984872
3238991158
3238996590
3239002084
3239007150
3239014046
3239019173
3239023934
3239029366
3239034371
3239039864
3239045785
3239049508
3239057198
