3502919255
3502924198
3502930058
3502935734
3502940617
3502945134
3502951115
3502957035
3502961979
3502969792
3502976078
3502980595
3502988468
3502995365
3503000858
3503006046
3503013737
3503020329
3503026676
3503032841
3503040409
3503047306
3503052738
3503059269
3503066166
3503073124
3503081303
3503089481
3503094791
3503104740
3503110538
3503116703
3503125736
3503133915
3503140262
3503148563
3503154789
3503160099
3503171695
3503179752
3503191349
3503195438
3503205387
3503211002
3503217289
3503226200
3503233524
3503239200
3503248111
3503253910
3503260379
3503270328
3503277530
3503284122
3503289981
3503296695
3503302799
3503311344
3503319278
3503324954
3503333255
3503340152
3503349857
3503360294
3503367557
3503373721
3503383304
3503392581
3503398379
3503410098
3503417239
3503425052
3503433719
3503445682
3503451236
3503460086
3503469729
3503477908
3503484622
3503491519
3503499453
3503508609
3503517642
3503525088
3503531863
3503538272
3503546389
3503555545
3503563174
3503567324
3503577639
3503584841
3503592959
3503601870
3503610415
3503616885
3503625002
3503633547
3503642275
3503650088
3503657168
3503662173
3503672427
3503678713
3503686526
3503694887
3503701784
3503710146
3503716616
3503722353
3503730410
3503739382
3503749392
3503756899
3503765749
3503772463
3503782717
3503790773
3503798769
3503805788
3503812441
3503819948
3503826784
3503835451
3503843508
3503851381
3503858156
3503865419
3503873049
3503881899
3503891786
3503899355
3503904299
3503913698
3503921938
3503926393
3503936281
3503944582
3503950502
3503957887
3503966493
3503973695
3503981752
3503990602
3504001466
3504009340
3504019411
3504026185
3504034486
3504042970
3504049440
3504056703
3504065065
3504073365
3504082216
3504090699
3504098756
3504107118
3504112550
3504121705
3504128053
3504136232
3504143739
3504152589
3504158570
3504167726
3504174378
3504181947
3504188905
3504196961
3504205628
3504213380
3504221009
3504229310
3504234498
3504243348
3504251649
3504259522
3504269410
3504276795
3504283570
3504293030
3504299012
3504309571
3504317994
3504326050
3504334107
3504342225
3504349366
3504358704
3504366211
3504377564
3504386536
3504391541
3504401001
3504406861
3504418885
3504427552
3504435242
3504441895
3504449768
3504457215
3504465271
3504473755
3504480469
3504488098
3504494690
3504502014
3504512085
3504521729
3504529419
3504536804
3504544312
3504552856
3504559875
3504568970
3504579285
3504586731
3504595398
3504603393
3504611755
3504621277
3504631225
3504638428
3504644287
3504653076
3504661071
3504665466
3504677063
3504685730
3504691101
3504699157
3504706848
3504715149
3504722717
3504730407
3504737304
3504745788
3504752136
3504758666
3504766723
3504773925
3504781921
3504790222
3504795287
3504805297
3504811950
3504819885
3504827636
3504834533
3504841613
3504849426
3504859435
3504866698
3504873656
3504880492
3504888671
3504894836
3504903014
3504911559
3504919616
3504927184
3504933898
3504941588
3504949706
3504957641
3504964049
3504970885
3504980285
3504987731
3504996215
3505003905
3505011290
3505019835
3505024596
3505034056
3505043273
3505051268
3505058715
3505064879
3505073424
3505082274
3505090514
3505096922
3505106017
3505114989
3505120665
3505129149
3505138487
3505145811
3505153990
3505161558
3505169432
3505176268
3505183958
3505193541
3505202513
3505210020
3505217894
3505225889
3505232298
3505245054
3505252501
3505263182
3505270445
3505277220
3505283201
3505293333
3505298033
3505304197
3505311460
3505317198
3505322142
3505328977
3505335691
3505342344
3505348570
3505354246
3505361875
3505368467
3505375547
3505382932
3505387327
3505394712
3505401121
3505408567
3505414610
3505419737
3505426389
3505432310
3505438902
3505444395
3505450559
3505457700
3505463377
3505469785
3505475034
3505481992
3505487058
3505493650
3505499082
3505506772
3505512082
3505515989
3505522581
3505528867
3505535032
3505541318
3505546628
3505553953
3505560972
3505567258
3505572751
3505578794
3505585447
3505591001
3505596372
3505601560
3505607114
3505610898
3505617673
3505621701
3505629331
3505631955
3505639157
3505643918
3505649533
3505654721
3505660947
3505665402
3505671384
3505676572
3505681638
3505686826
3505691953
3505697995
3505704770
3505709592
3505716916
3505722043
3505728085
3505732297
3505739011
3505744321
3505752927
3505758664
3505765012
3505772336
3505778561
3505785153
3505789975
3505795773
3505799985
3505807248
3505812619
3505818722
3505821469
3505830136
3505834591
3505842221
3505848202
3505853940
3505859555
3505865292
3505870724
3505876278
3505881955
3505887509
3505893490
3505897580
3505904721
3505908871
3505917416
3505922665
3505928891
3505932797
3505938961
3505944638
3505950741
3505955502
3505963986
3505969540
3505975033
3505980953
3505985043
3505991940
3505996090
3506003353
3506008114
3506014034
3506018124
3506025997
3506031124
3506037228
3506040524
3506049496
3506055477
3506061153
3506065609
3506071773
3506079281
3506084041
3506090572
3506097774
3506103451
3506109615
3506115841
3506121029
3506127254
3506132320
3506138546
3506144283
3506149776
3506155575
3506161129
3506166988
3506172359
3506178157
3506182857
3506189571
3506195613
3506199947
3506203731
3506210506
3506215023
3506221492
3506228878
3506234066
3506238887
3506243892
3506249568
3506254817
3506261470
3506267696
3506273433
3506278560
3506285030
3506289852
3506294917
3506301631
3506308894
3506314143
3506319331
3506325435
3506329951
3506335689
3506343196
3506348140
3506354732
3506360408
3506366695
3506372737
3506378230
3506384273
3506392024
3506398250
3506402034
3506408137
3506413997
3506419429
3506425532
3506431453
3506436824
3506442256
3506450068
3506454158
3506461116
3506466426
3506471736
3506478083
3506482783
3506487361
3506494502
3506499263
3506505549
3506510676
3506516963
3506523860
3506529536
3506534114
3506539729
3506545283
3506550715
3506556269
3506561946
3506568781
3506573115
3506580195
3506584895
3506592341
3506597712
3506604304
3506613276
3506619013
3506626154
3506631586
3506637568
3506642268
3506649531
3506654719
3506659846
3506665461
3506670710
3506676020
3506682184
3506687006
3506692988
3506699152
3506704279
3506710444
3506715021
3506721186
3506726191
3506732294
3506737665
3506743281
3506749384
3506755060
3506761042
3506766535
3506771174
3506778437
3506784479
3506790705
3506796137
3506800348
3506807550
3506812067
3506819025
3506824579
3506830622
3506837702
3506843439
3506849176
3506855097
3506859857
3506867243
3506871942
3506877496
3506883661
3506887933
3506895502
3506899774
3506906854
3506911554
3506917841
3506922479
3506928644
3506934137
3506940607
3506946649
3506952447
3506959222
3506964960
3506970514
3506974664
3506981805
3506986139
3506993036
3506997125
3507004938
3507009576
3507015680
3507020746
3507026971
3507032159
3507039056
3507045038
3507050531
3507056024
3507061578
3507065850
3507072259
3507077020
3507083551
3507090387
3507095880
3507101617
3507105767
3507111871
3507117547
3507124322
3507130487
3507135430
3507139581
3507147332
3507153680
3507158990
3507164361
3507171441
3507177056
3507182794
3507188775
3507194329
3507200372
3507205865
3507211907
3507216180
3507222649
3507226739
3507234490
3507237237
3507244866
3507250664
3507257439
3507262383
3507268609
3507272759
3507278924
3507285393
3507291619
3507296319
3507303765
3507308404
3507313836
3507320183
3507325676
3507332268
3507336541
3507344170
3507351250
3507356987
3507363030
3507367974
3507373040
3507378167
3507385430
3507392449
3507397637
3507402825
3507407463
3507412407
3507418816
3507424980
3507430168
3507435234
3507441338
3507446709
3507453179
3507458367
3507465264
3507471367
3507475334
3507481987
3507485771
3507492668
3507497124
3507504082
3507510307
3507515617
3507521965
3507525871
3507532646
3507536674
3507544914
3507549065
3507556023
3507561272
3507566215
3507571159
3507576286
3507582573
3507588737
3507593681
3507599968
3507604484
3507609367
3507615104
3507620842
3507628288
3507633842
3507639396
3507645744
3507652092
3507657524
3507663322
3507669243
3507675712
3507680412
3507688163
3507693779
3507701286
3507705253
3507712944
3507717948
3507723381
3507730278
3507735343
3507741630
3507747428
3507751274
3507758415
3507762992
3507768730
3507774101
3507780021
3507785331
3507790580
3507796928
3507802177
3507807121
3507812614
3507818961
3507823966
3507830131
3507834891
3507841178
3507846366
3507853202
3507856498
3507863639
3507869559
3507875907
3507880973
3507887076
3507893851
3507899528
3507905387
3507911002
3507917716
3507922294
3507929007
3507935355
3507940604
3507944693
3507952079
3507956961
3507963248
3507968070
3507974295
3507981009
3507986563
3507992301
3507997916
3508003958
3508009635
3508014395
3508020011
3508026541
3508032157
3508037589
3508043570
3508049124
3508055350
3508060172
3508064383
3508072135
3508077567
3508083853
3508089285
3508095084
3508101126
3508106680
3508112418
3508118033
3508123526
3508129202
3508134024
3508141043
3508146109
3508151663
3508157339
3508162833
3508168448
3508172659
3508182303
3508188345
3508193167
3508197928
3508204092
3508209585
3508216238
3508223990
3508230276
3508236624
3508242666
3508248098
3508252066
3508259390
3508264578
3508270254
3508275381
3508280569
3508286306
3508291861
3508297293
3508304251
3508309866
3508314260
3508320425
3508326345
3508332693
3508337026
3508343435
3508350027
3508356130
3508361074
3508367117
3508371999
3508378225
3508383474
3508388967
3508395315
3508401540
3508406973
3508412649
3508418813
3508424429
3508430227
3508435964
3508442617
3508446645
3508455801
3508460317
3508466543
3508472158
3508477956
3508484365
3508489858
3508496206
3508500356
3508506582
3508512136
3508518300
3508522390
3508530324
3508537404
3508542836
3508549550
3508555104
3508559804
3508565297
3508570729
3508576528
3508583486
3508587819
3508595327
3508599904
3508606923
3508610829
3508618947
3508624318
3508630055
3508635610
3508640676
3508646474
3508652394
3508657094
3508662709
3508668874
3508674855
3508680653
3508684743
3508691762
3508696278
3508703542
3508710194
3508715749
3508721608
3508727162
3508732655
3508738148
3508743397
3508749074
3508755116
3508761220
3508767689
3508774708
3508780934
3508786915
3508791798
3508798268
3508803456
3508809132
3508814259
3508819996
3508825612
3508831349
3508837269
3508843434
3508847584
3508854664
3508858754
3508865467
3508869557
3508876576
3508881031
3508888111
3508892872
3508899769
3508904835
3508911000
3508917042
3508923329
3508929127
3508934864
3508940357
3508947010
3508953236
3508959034
3508965016
3508971790
3508976734
3508983265
3508988636
3508993702
3509000782
3509005604
3509012257
3509019093
3509024708
3509030140
3509036060
3509040577
3509046741
3509052418
3509058094
3509064075
3509069569
3509075245
3509080799
3509086658
3509092701
3509098682
3509103077
3509109974
3509114307
3509121692
3509126636
3509132801
3509138782
3509143604
3509150074
3509155384
3509161670
3509167286
3509172840
3509178516
3509184070
3509190540
3509195240
3509199390
3509206592
3509210742
3509217823
3509223255
3509229602
3509234729
3509240833
3509246692
3509252307
3509257984
3509263599
3509268115
3509274646
3509281177
3509286914
3509292712
3509297046
3509305347
3509310168
3509318103
3509323901
3509330798
3509335681
3509342700
3509348315
3509353076
3509357959
3509364184
3509371081
3509376697
3509381152
3509387500
3509393603
3509399096
3509404712
3509410388
3509415759
3509419909
3509427356
3509431506
3509438220
3509442492
3509450732
3509456530
3509462939
3509467761
3509473803
3509479480
3509485278
3509490832
3509497302
3509503039
3509508715
3509515002
3509519213
3509526171
3509531726
3509538684
3509545642
3509550952
3509555224
3509563281
3509568591
3509575060
3509579821
3509587573
3509592638
3509598071
3509603747
3509609362
3509615038
3509620654
3509627428
3509631762
3509638720
3509643542
3509650744
3509653490
3509661547
3509667223
3509672167
3509677965
3509684130
3509688830
3509694994
3509701342
3509707018
3509712084
3509719103
3509725878
3509730028
3509737475
3509742235
3509748827
3509753588
3509759874
3509765306
3509771471
3509776659
3509782946
3509788744
3509794359
3509798571
3509805468
3509811022
3509817858
3509823595
3509827928
3509833727
3509839281
3509844957
3509850511
3509859056
3509864732
3509874010
3509880846
3509888475
3509893480
3509899156
3509905687
3509910814
3509917833
3509922777
3509928880
3509933885
3509939745
3509945482
3509950670
3509955675
3509960985
3509966661
3509971910
3509978074
3509983873
3509989915
3509994798
3510000535
3510005357
3510012987
3510018297
3510022996
3510030320
3510036058
3510040941
3510046861
3510050523
3510056993
3510062425
3510068162
3510074632
3510080064
3510086045
3510092637
3510098313
3510103135
3510108872
3510114121
3510117662
3510124375
3510129685
3510135118
3510140428
3510145249
3510151780
3510155198
3510162278
3510169053
3510173997
3510179673
3510184434
3510189744
3510193284
3510200120
3510204636
3510210252
3510216355
3510221055
3510225510
3510230576
3510236680
3510240525
3510247178
3510253098
3510257737
3510262925
3510267808
3510273118
3510278123
3510284287
3510288254
3510294663
3510299729
3510304551
3510310044
3510315232
3510320603
3510326645
3510332200
3510338669
3510343003
3510350327
3510355332
3510363511
3510369187
3510374924
3510379685
3510385483
3510391037
3510396164
3510401902
3510407028
3510412888
3510418686
3510424607
3510427048
3510434921
3510439926
3510445175
3510451401
3510456528
3510462692
3510466660
3510472580
3510477768
3510484177
3510488571
3510496750
3510499924
3510506516
3510511948
3510518906
3510525314
3510530502
3510536179
3510540146
3510547226
3510551071
3510558517
3510563400
3510569748
3510575668
3510580185
3510586044
3510592758
3510597030
3510602829
3510609726
3510613632
3510619491
3510625717
3510630356
3510634811
3510641281
3510647262
3510652816
3510658371
3510663436
3510669113
3510674240
3510679550
3510685531
3510691391
3510696090
3510701828
3510706954
3510712081
3510718673
3510724471
3510731063
3510735092
3510741744
3510746383
3510752426
3510757186
3510763656
3510768600
3510775131
3510781051
3510786483
3510791915
3510797408
3510804610
3510810470
3510816146
3510822555
3510828780
3510834212
3510839156
3510843917
3510850692
3510856368
3510863387
3510869552
3510876205
3510882552
3510888228
3510894454
3510898421
3510905440
3510910872
3510915511
3510922042
3510927230
3510932662
3510937911
3510943282
3510948470
3510954818
3510958602
3510965133
3510970809
3510977034
3510979842
3510987960
3510993331
3510999556
3511004256
3511010420
3511017012
3511022627
3511027510
3511033064
3511038802
3511044905
3511050643
3511056319
3511063155
3511067305
3511073836
3511079817
3511085310
3511092085
3511097151
3511108321
3511115828
3511122298
3511126448
3511134505
3511141890
3511147322
3511153181
3511158736
3511165388
3511171553
3511177901
3511183516
3511189253
3511195051
3511201033
3511207991
3511212202
3511218977
3511223188
3511230146
3511234236
3511242292
3511247786
3511254072
3511260054
3511265547
3511270491
3511276655
3511282515
3511288008
3511293013
3511298628
3511305036
3511311079
3511316328
3511322492
3511328718
3511333845
3511340071
3511345747
3511351179
3511356550
3511362837
3511368635
3511374311
3511380354
3511386030
3511392072
3511397627
3511402692
3511408735
3511415571
3511425397
3511430646
3511437849
3511442426
3511448225
3511453718
3511459577
3511464948
3511470258
3511476240
3511480024
3511486982
3511491254
3511498090
3511504987
3511509809
3511515058
3511521344
3511526532
3511532758
3511538007
3511543622
3511549298
3511554914
3511560712
3511566205
3511571698
3511577191
3511583356
3511588239
3511594647
3511600751
3511607526
3511612531
3511619855
3511625104
3511632733
3511638532
3511646161
3511650006
3511656964
3511662702
3511668866
3511675275
3511679181
3511685773
3511689435
3511695782
3511701642
3511707867
3511713727
3511717999
3511724103
3511727704
3511734540
3511738629
3511744305
3511749615
3511754864
3511760663
3511765301
3511770306
3511774029
3511781170
3511786969
3511791974
3511796856
3511802533
3511808331
3511813458
3511817914
3511825482
3511832013
3511836224
3511841961
3511845807
3511853131
3511857586
3511863995
3511869793
3511876019
3511881756
3511887005
3511891278
3511896343
3511902508
3511908489
3511915081
3511920757
3511927654
3511933758
3511938763
3511945110
3511950237
3511956219
3511960735
3511967144
3511972454
3511977337
3511981365
3511986614
3511993450
3511997662
3512003033
3512007610
3512012981
3512017681
3512025188
3512031048
3512034954
3512041302
3512045147
3512051800
3512056438
3512063518
3512070293
3512075603
3512081402
3512086590
3512091655
3512096843
3512103313
3512110149
3512116741
3512121685
3512126140
3512132854
3512137920
3512142742
3512150127
3512155437
3512160503
3512166912
3512170757
3512177227
3512181377
3512188152
3512194438
3512199260
3512203716
3512208538
3512214580
3512220806
3512225627
3512232585
3512237590
3512242168
3512250041
3512255046
3512260173
3512265117
3512270976
3512277690
3512281841
3512289348
3512293925
3512301677
3512307414
3512312785
3512319438
3512323650
3512331035
3512337016
3512341899
3512348002
3512354533
3512359233
3512365336
3512371013
3512376140
3512380961
3512386088
3512391032
3512396647
3512403544
3512407451
3512414103
3512418437
3512424052
3512430949
3512437053
3512444499
3512450541
3512456584
3512460124
3512466532
3512471781
3512476481
3512481852
3512487773
3512493754
3512497843
3512504374
3512508402
3512515055
3512521281
3512528178
3512532694
3512539042
3512545756
3512551371
3512556010
3512562846
3512569315
3512573405
3512580485
3512584818
3512591471
3512597636
3512603922
3512609904
3512615946
3512620646
3512627055
3512632059
3512639994
3512644816
3512650553
3512657145
3512662882
3512668802
3512673990
3512678446
3512684427
3512690409
3512695048
3512701273
3512707193
3512713114
3512718912
3512722818
3512729593
3512734415
3512742289
3512747416
3512753336
3512758463
3512763712
3512769571
3512775125
3512781534
3512787882
3512792581
3512797220
3512805155
3512810343
3512816019
3512822489
3512827616
3512833475
3512838114
3512843790
3512846781
3512853800
3512860147
3512865823
3512870828
3512876138
3512881326
3512886453
3512892618
3512900125
3512904947
3512909524
3512915933
3512921121
3512926981
3512932474
3512938089
3512942789
3512949136
3512954996
3512960550
3512967874
3512972635
3512978494
3512984598
3512989663
3512994546
3512999551
3513005166
3513011270
3513016336
3513022439
3513027566
3513032022
3513037210
3513042886
3513048074
3513053689
3513060159
3513065225
3513070047
3513075784
3513081704
3513086282
3513091165
3513097634
3513104104
3513109719
3513115273
3513119180
3513125405
3513130410
3513136514
3513142861
3513148904
3513154092
3513158547
3513164285
3513170144
3513175698
3513182229
3513189126
3513193459
3513198952
3513204629
3513210427
3513214822
3513221291
3513226784
3513232888
3513236794
3513242531
3513248330
3513253579
3513258523
3513265969
3513271157
3513274941
3513281106
3513287758
3513294106
3513299355
3513305031
3513309548
3513316811
3513322060
3513328652
3513333352
3513338417
3513344887
3513351235
3513356667
3513362343
3513368996
3513374062
3513380410
3513386025
3513393715
3513400185
3513405800
3513411782
3513416481
3513422402
3513429299
3513433144
3513440041
3513446388
3513453041
3513459877
3513468056
3513473793
3513480385
3513485146
3513491310
3513496742
3513501869
3513508400
3513513710
3513518898
3513525856
3513531532
3513537086
3513543556
3513547951
3513554237
3513558815
3513565651
3513570839
3513576454
3513581398
3513588234
3513592689
3513599403
3513604347
3513612648
3513617653
3513624183
3513629676
3513635719
3513641883
3513647682
3513654518
3513661293
3513667762
3513671669
3513679481
3513686073
3513691749
3513698341
3513703346
3513709937
3513714759
3513720802
3513726112
3513731910
3513738319
3513742896
3513748084
3513753700
3513770789
3513775977
3513782142
3513788001
3513794288
3513800208
3513805701
3513811683
3513816566
3513823279
3513827064
3513835609
3513841041
3513845679
3513851356
3513857215
3513864173
3513869788
3513874610
3513879859
3513887855
3513893104
3513898230
3513904273
3513910193
3513916114
3513922461
3513928565
3513935462
3513940528
3513947791
3513954261
3513960425
3513965125
3513969397
3513977088
3513981482
3513988501
3513993018
3513998145
3514004370
3514008338
3514015479
3514019263
3514025672
3514030554
3514036353
3514040930
3514048010
3514053076
3514058814
3514064124
3514069189
3514075659
3514079688
3514085913
3514091833
3514097876
3514104529
3514110144
3514113989
3514119665
3514125464
3514130774
3514137427
3514143164
3514149023
3514153845
3514159643
3514164465
3514170935
3514175451
3514181982
3514187597
3514192724
3514199133
3514204382
3514209082
3514214209
3514221228
3514225012
3514231543
3514237829
3514242895
3514248510
3514253698
3514259924
3514264196
3514270544
3514276464
3514280920
3514287084
3514292272
3514297216
3514302160
3514307958
3514313268
3514319677
3514323889
3514330847
3514335790
3514343542
3514349035
3514354833
3514361669
3514367651
3514373815
3514378271
3514384557
3514391515
3514397192
3514403051
3514407323
3514413610
3514419408
3514426000
3514433568
3514439733
3514446203
3514451879
3514457555
3514462804
3514468725
3514474828
3514480016
3514485753
3514491002
3514495702
3514501134
3514507726
3514512243
3514518224
3514521886
3514528417
3514533544
3514538976
3514544042
3514549535
3514555028
3514559911
3514566930
3514571813
3514579015
3514584752
3514588903
3514596166
3514602086
3514606725
3514612401
3514618199
3514623204
3514629308
3514635777
3514641026
3514646764
3514652379
3514658727
3514664281
3514670262
3514674046
3514681371
3514686436
3514691685
3514696873
3514702061
3514708470
3514712865
3514719090
3514725316
3514730321
3514735631
3514741490
3514746495
3514753819
3514759373
3514764622
3514769627
3514774815
3514780430
3514786778
3514791417
3514798131
3514802952
3514808018
3514814244
3514820652
3514826268
3514830540
3514838169
3514842808
3514848362
3514854161
3514859715
3514865696
3514872105
3514877781
3514883580
3514889988
3514893833
3514901158
3514905796
3514911778
3514918003
3514922581
3514929295
3514934361
3514943638
3514949314
3514956211
3514962376
3514967381
3514974033
3514979099
3514984104
3514989536
3514995518
3515001194
3515008091
3515012791
3515019016
3515023289
3515031223
3515036289
3515042393
3515047764
3515054050
3515057346
3515064914
3515071201
3515076694
3515081455
3515087742
3515092014
3515099582
3515104709
3515110141
3515116001
3515121677
3515126865
3515132541
3515138523
3515144077
3515151279
3515156589
3515162754
3515167636
3515174411
3515179965
3515186557
3515192539
3515198093
3515202915
3515208713
3515214023
3515219882
3515226901
3515233371
3515239230
3515243320
3515249912
3515254062
3515262058
3515266391
3515273837
3515279514
3515284396
3515288791
3515296359
3515301181
3515307346
3515313327
3515318332
3515324130
3515330295
3515335483
3515341647
3515345981
3515352267
3515359103
3515364596
3515369723
3515375216
3515381015
3515387118
3515392367
3515396579
3515404330
3515408969
3515415866
3515420504
3515428256
3515432833
3515439059
3515444064
3515450534
3515455416
3515461581
3515467135
3515472567
3515478671
3515484286
3515491671
3515499423
3515505709
3515512240
3515518588
3515524081
3515529757
3515537753
3515542269
3515548556
3515553317
3515560275
3515565646
3515571749
3515574923
3515581881
3515588290
3515594515
3515599520
3515605196
3515611361
3515617037
3515622530
3515628451
3515634066
3515639803
3515645113
3515650667
3515656832
3515660921
3515667818
3515671908
3515680391
3515683199
3515691439
3515696932
3515701693
3515706820
3515713411
3515721041
3515726656
3515733370
3515737581
3515744661
3515748995
3515757112
3515761873
3515768953
3515774507
3515780855
3515786409
3515791170
3515795931
3515802278
3515809297
3515814852
3515819856
3515825777
3515831575
3515837373
3515843294
3515848848
3515854341
3515859834
3515865450
3515871065
3515877718
3515882051
3515889436
3515896333
3515901826
3515906282
3515912508
3515915742
3515923128
3515929841
3515935579
3515941133
3515946687
3515952913
3515958528
3515963167
3515968843
3515974763
3515980501
3515986909
3515991487
3515998445
3516004426
3516009309
3516014375
3516020539
3516026033
3516032014
3516038484
3516044587
3516051545
3516057893
3516064302
3516071382
3516075532
3516081452
3516087617
3516093659
3516099275
3516103791
3516110200
3516115693
3516121186
3516126740
3516132356
3516138459
3516143952
3516149995
3516154389
3516161347
3516165498
3516172272
3516176545
3516183747
3516188020
3516194428
3516198945
3516206635
3516211762
3516217988
3516223237
3516229890
3516233857
3516241608
3516246430
3516254181
3516260956
3516265046
3516272675
3516281342
3516285553
3516291779
3516297394
3516302765
3516307892
3516314728
3516319733
3516325043
3516331147
3516337250
3516342560
3516348420
3516353730
3516361542
3516367462
3516372284
3516377899
3516383881
3516389801
3516394684
3516401093
3516407746
3516413056
3516417206
3516424774
3516429474
3516435577
3516439789
3516447235
3516453461
3516459564
3516464813
3516469574
3516475922
3516481598
3516486481
3516492828
3516499176
3516504852
3516509857
3516516388
3516521271
3516526764
3516532867
3516539947
3516544037
3516551422
3516555816
3516561859
3516568878
3516574493
3516584564
3516592071
3516598968
3516605072
3516610565
3516614898
3516622406
3516627166
3516632843
3516639556
3516643646
3516649749
3516653900
3516661346
3516665679
3516673309
3516678314
3516684478
3516690154
3516695098
3516700103
3516706329
3516711944
3516717437
3516723358
3516728912
3516735503
3516740997
3516746734
3516752898
3516759917
3516763396
3516770782
3516777190
3516782684
3516788726
3516794646
3516799834
3516805755
3516811736
3516817779
3516823638
3516827971
3516836394
3516840667
3516848968
3516853911
3516860076
3516865325
3516871428
3516876861
3516882659
3516888579
3516894194
3516900115
3516906035
3516910674
3516916289
3516922942
3516928557
3516933562
3516939055
3516945891
3516952178
3516957549
3516963835
3516968657
3516974883
3516979705
3516985808
3516990752
3516997588
3517002471
3517007231
3517015349
3517021391
3517027068
3517032622
3517038115
3517042998
3517048491
3517054106
3517059782
3517066801
3517071013
3517079131
3517083159
3517088957
3517094633
3517101347
3517107085
3517112517
3517119963
3517124785
3517134184
3517139067
3517147185
3517152861
3517169096
3517172880
3517179716
3517186003
3517190947
3517196745
3517201994
3517207975
3517211821
3517219206
3517224333
3517231352
3517236174
3517241484
3517247099
3517252226
3517259245
3517265165
3517270902
3517275236
3517282194
3517286588
3517293546
3517297880
3517303739
3517310087
3517314115
3517321439
3517326383
3517333158
3517336027
3517344389
3517351408
3517356718
3517362943
3517366972
3517374174
3517378629
3517385953
3517390714
3517397367
3517402555
3517408781
3517413480
3517419706
3517425992
3517431302
3517437345
3517443448
3517448453
3517454069
3517459012
3517465604
3517472623
3517479093
3517484525
3517488981
3517495939
3517501432
3517507352
3517513517
3517519803
3517525357
3517530362
3517534452
3517539701
3517545438
3517550016
3517556546
3517562284
3517567838
3517573270
3517577970
3517583219
3517588223
3517593472
3517599393
3517605252
3517610440
3517615262
3517619412
3517625028
3517631863
3517638394
3517645840
3517652676
3517659451
3517666287
3517671414
3517677518
3517684293
3517689786
3517692837
3517699307
3517705228
3517709866
3517714261
3517722012
3517726529
3517731961
3517737271
3517741788
3517747342
3517752225
3517758511
3517763699
3517768887
3517773892
3517778958
3517784573
3517789639
3517795803
3517800869
3517806912
3517812344
3517817105
3517822415
3517825833
3517832363
3517836697
3517843350
3517848416
3517854336
3517858731
3517864285
3517870205
3517875698
3517880764
3517886135
3517891506
3517895840
3517902432
3517907314
3517913174
3517918240
3517922939
3517929226
3517933804
3517938992
3517943325
3517949795
3517955959
3517961147
3517966640
3517970303
3517975735
3517980679
3517987087
3517993130
3517998379
3518003689
3518008877
3518014187
3518019314
3518024502
3518030544
3518035854
3518041408
3518047268
3518051967
3518057766
3518062465
3518068630
3518074306
3518079799
3518085292
3518090603
3518096401
3518101528
3518106472
3518112819
3518118496
3518122463
3518130764
3518135341
3518142116
3518148159
3518155056
3518160305
3518165370
3518170680
3518175685
3518180751
3518184474
3518191493
3518196803
3518203151
3518208278
3518213527
3518218776
3518224025
3518229579
3518234950
3518241969
3518245815
3518251918
3518257777
3518262355
3518266322
3518274135
3518279384
3518285670
3518290065
3518295924
3518302028
3518307887
3518313014
3518318934
3518326564
3518331264
3518337367
3518342067
3518348109
3518350856
3518358790
3518365260
3518371241
3518376185
3518381434
3518386317
3518393275
3518398280
3518404994
3518411158
3518416285
3518422023
3518426600
3518432460
3518436915
3518443263
3518448207
3518454371
3518458888
3518464747
3518470057
3518475245
3518481288
3518485499
3518493495
3518498499
3518504420
3518509425
3518515223
3518518641
3518524683
3518530848
3518535914
3518540125
3518545985
3518550013
3518556971
3518562037
3518568568
3518574610
3518578455
3518584132
3518587977
3518594446
3518598353
3518607020
3518613062
3518619410
3518624048
3518629786
3518634485
3518640162
3518644495
3518652430
3518657740
3518662012
3518670435
3518676416
3518682215
3518687769
3518693689
3518700098
3518705469
3518709803
3518715052
3518720545
3518725794
3518731958
3518735987
3518743006
3518748499
3518752954
3518757959
3518763758
3518769129
3518775904
3518781946
3518787561
3518792505
3518797754
3518802576
3518807642
3518813379
3518820459
3518825281
3518831323
3518836939
3518842188
3518846826
3518851648
3518858240
3518864343
3518869958
3518876916
3518881494
3518889246
3518895532
3518901575
3518907678
3518914575
3518919336
3518921899
3518929834
3518932336
3518942041
3518946985
3518952356
3518958703
3518965539
3518971826
3518976465
3518984765
3518990503
3518994348
3519000634
3519007898
3519014062
3519019006
3519024011
3519030419
3519035852
3519041162
3519045068
3519051538
3519056176
3519062036
3519067773
3519073754
3519077966
3519081811
3519088586
3519093774
3519099328
3519106286
3519111596
3519116540
3519122277
3519127587
3519131371
3519138940
3519144921
3519149682
3519155358
3519162682
3519168237
3519173119
3519179589
3519185998
3519192040
3519196862
3519202233
3519207238
3519211999
3519217065
3519222863
3519229455
3519233117
3519239770
3519244286
3519249657
3519255211
3519260643
3519266625
3519271935
3519278466
3519284508
3519290673
3519297570
3519303307
3519308617
3519313256
3519318932
3519324425
3519329796
3519335533
3519340355
3519347008
3519351158
3519357140
3519362572
3519366661
3519372765
3519377342
3519384056
3519389733
3519394432
3519399254
3519404625
3519409630
3519415306
3519421654
3519428673
3519433983
3519439354
3519446129
3519451561
3519458031
3519464317
3519469505
3519475182
3519480308
3519486168
3519490379
3519497642
3519502403
3519508201
3519513634
3519519371
3519523826
3519531395
3519537010
3519542625
3519547874
3519553367
3519559410
3519563560
3519569664
3519575340
3519582298
3519586815
3519593223
3519598716
3519605003
3519607933
3519616294
3519619712
3519628379
3519632713
3519638999
3519644737
3519650291
3519656211
3519661704
3519667320
3519673911
3519680259
3519687095
3519692344
3519696983
3519704734
3519709007
3519716270
3519721275
3519727561
3519733421
3519738303
3519743736
3519749839
3519753074
3519760276
3519767295
3519773032
3519778220
3519783897
3519789695
3519795188
3519800315
3519805930
3519812400
3519818503
3519823447
3519827598
3519835410
3519839988
3519846335
3519851035
3519857322
3519863303
3519869712
3519876487
3519882468
3519888327
3519893943
3519900107
3519904624
3519912009
3519916770
3519922995
3519929648
3519936972
3519942649
3519947592
3519953574
3519960105
3519966269
3519971762
3519976462
3519982810
3519991110
3519996848
3520001669
3520007346
3520013510
3520018698
3520024252
3520030539
3520036154
3520041830
3520047324
3520053244
3520059042
3520065207
3520069418
3520077414
3520082846
3520089133
3520094015
3520100180
3520106283
3520112692
3520117453
3520125021
3520130087
3520135580
3520141134
3520147177
3520152609
3520157309
3520164572
3520168722
3520175802
3520180380
3520186850
3520193563
3520197836
3520205832
3520213156
3520221640
3520228842
3520237692
3520244100
3520253012
3520261129
3520268331
3520275839
3520283224
3520290548
3520296957
3520304098
3520311239
3520316244
3520322591
3520327047
3520333273
3520338705
3520346029
3520351705
3520356893
3520363058
3520368490
3520374227
3520379598
3520385274
3520392171
3520397665
3520400960
3520407796
3520414083
3520419698
3520425130
3520431539
3520437398
3520443380
3520449117
3520453450
3520459981
3520464498
3520473836
3520480123
3520486043
3520492391
3520498006
3520503621
3520509114
3520514485
3520520223
3520526631
3520530721
3520537740
3520541829
3520548421
3520552632
3520559346
3520565206
3520571492
3520577168
3520583272
3520587239
3520594808
3520600667
3520606465
3520611287
3520616963
3520623250
3520627644
3520634847
3520639180
3520646138
3520653340
3520658101
3520662678
3520669575
3520674580
3520680867
3520686726
3520693013
3520698262
3520703755
3520709065
3520714985
3520721211
3520727009
3520732564
3520738667
3520745686
3520748616
3520756489
3520761311
3520767598
3520772297
3520780171
3520785237
3520791829
3520797810
3520803547
3520810078
3520816304
3520823139
3520829792
3520836872
3520841145
3520847126
3520853901
3520858845
3520865376
3520870625
3520875813
3520882099
3520887165
3520893330
3520898274
3520904560
3520911396
3520917072
3520922321
3520927815
3520933613
3520939289
3520944904
3520950397
3520957478
3520962727
3520969257
3520972797
3520980671
3520986469
3520992695
3520996479
3521004291
3521010334
3521015888
3521021015
3521026569
3521033161
3521037616
3521044941
3521049457
3521056598
3521061420
3521068256
3521074848
3521079609
3521084247
3521091938
3521097553
3521102985
3521109027
3521114643
3521120319
3521126056
3521131732
3521137348
3521142902
3521148395
3521155292
3521160358
3521166522
3521171771
3521178180
3521184955
3521190692
3521196246
3521201801
3521207172
3521212726
3521219623
3521223651
3521230731
3521235309
3521242633
3521247638
3521253863
3521259418
3521264362
3521271442
3521276996
3521281329
3521287494
3521293475
3521299274
3521304706
3521310565
3521315997
3521321673
3521327472
3521333514
3521340899
3521345965
3521353351
3521358233
3521365680
3521371234
3521377765
3521382647
3521388934
3521394610
3521400958
3521406573
3521412188
3521417742
3521423358
3521429217
3521434710
3521440264
3521445758
3521452593
3521456683
3521464068
3521468890
3521475054
3521480364
3521486712
3521491900
3521498248
3521502886
3521509173
3521514849
3521520403
3521527117
3521533221
3521538165
3521543902
3521550921
3521555132
3521562334
3521566485
3521574419
3521580218
3521587054
3521591875
3521598162
3521603777
3521609331
3521615191
3521622454
3521627093
3521632586
3521639422
3521643694
3521650408
3521654619
3521661882
3521667254
3521673784
3521678545
3521684710
3521689775
3521696001
3521701799
3521708879
3521713701
3521718950
3521724871
3521730547
3521736650
3521741106
3521748979
3521754228
3521760393
3521765581
3521771745
3521777605
3521783281
3521787737
3521794328
3521800310
3521805864
3521811601
3521817949
3521824602
3521830217
3521835161
3521840898
3521847185
3521851335
3521858415
3521862688
3521869340
3521875871
3521880815
3521888017
3521894365
3521900896
3521906755
3521913225
3521917985
3521926530
3521930681
3521935747
3521940263
3521944291
3521948503
3521952531
3521956559
3521961015
3521965471
3521969804
3521974382
3521978166
3521982682
3521984636
3521991655
3521995073
3521999650
3522003739
3522007768
3522011674
3522015580
3522020341
3522025651
3522030046
3522034379
3522038835
3522043229
3522047563
3522051103
3522055558
3522060624
3522065019
3522070207
3522073197
3522079545
3522082169
3522088822
3522094010
3522098466
3522102555
3522107743
3522112016
3522117081
3522120438
3522125565
3522130875
3522134538
3522139603
3522143937
3522147233
3522152360
3522156815
3522162736
3522168229
3522172806
3522177384
3522180924
3522187516
3522191849
3522199296
3522203507
3522208451
3522213090
3522217606
3522222001
3522226578
3522231339
3522236588
3522242020
3522245377
3522250321
3522253617
3522259232
3522262589
3522267838
3522273331
3522277298
3522281388
3522285111
3522288346
3522293961
3522297379
3522303604
3522308121
3522313553
3522317398
3522322464
3522328202
3522332718
3522337113
3522342972
3522348038
3522352921
3522358658
3522363236
3522368424
3522371842
3522377396
3522381790
3522387772
3522390091
3522396256
3522399918
3522404617
3522407913
3522414383
3522419754
3522424149
3522429031
3522432877
3522437271
3522442215
3522445511
3522450821
3522456131
3522460342
3522464676
3522469253
3522474747
3522478104
3522486587
3522489883
3522495132
3522500015
3522504471
3522509414
3522513931
3522519119
3522522720
3522529068
3522532669
3522536941
3522540359
3522546341
3522550369
3522556717
3522562698
3522568618
3522573135
3522578079
3522583755
3522588516
3522592666
3522598342
3522602737
3522609878
3522613601
3522618545
3522622024
3522628128
3522631790
3522636672
3522642349
3522646865
3522650527
3522657119
3522661086
3522666335
3522671707
3522676772
3522682388
3522688003
3522691909
3522698379
3522702529
3522708205
3522712173
3522717788
3522723952
3522728652
3522734512
3522738357
3522744643
3522750075
3522754592
3522759353
3522765700
3522771682
3522778884
3522784743
3522789992
3522795119
3522800246
3522804641
3522811538
3522817336
3522825393
3522832534
3522838576
3522842910
3522850051
3522853774
3522861464
3522864821
3522874526
3522877700
3522885024
3522889418
3522895461
3522899794
3522905654
3522912368
3522918044
3522923842
3522928542
3522934218
3522939101
3522944838
3522949111
3522954543
3522959487
3522966322
3522971877
3522976943
3522982375
3522987380
3522991713
3523000136
3523006056
3523011427
3523016554
3523022292
3523026930
3523032851
3523037184
3523042860
3523049513
3523054701
3523060255
3523065077
3523071547
3523075636
3523082899
3523086378
3523096022
3523101759
3523107435
3523110365
3523119093
3523124464
3523131300
3523132826
3523142286
3523146254
3523152052
3523157911
3523163832
3523169569
3523174757
3523179335
3523185743
3523191236
3523197218
3523203566
3523207838
3523214186
3523218580
3523224195
3523230421
3523235487
3523241285
3523246168
3523251051
3523257276
3523261488
3523267469
3523273390
3523280103
3523285291
3523288648
3523299452
3523306348
3523311475
3523316785
3523323072
3523326124
3523334852
3523337781
3523345289
3523350050
3523355787
3523361524
3523366834
3523373426
3523378553
3523384351
3523389905
3523394361
3523399122
3523406385
3523411634
3523417737
3523425977
3523432203
3523437085
3523444165
3523449415
3523454419
3523459974
3523465528
3523468885
3523476331
3523480848
3523488111
3523490979
3523497510
3523503247
3523508008
3523515332
3523520398
3523526258
3523531629
3523535840
3523542127
3523546582
3523551465
3523558972
3523562634
3523570508
3523573377
3523580151
3523584607
3523591260
3523595532
3523601209
3523608472
3523612500
3523619031
3523624890
3523629407
3523635693
3523640088
3523645703
3523650830
3523655774
3523663464
3523669629
3523674756
3523677991
3523686413
3523689404
3523695996
3523700879
3523708447
3523712719
3523719006
3523723340
3523729809
3523734204
3523740429
3523745984
3523754406
3523758618
3523764172
3523769787
3523775525
3523779919
3523785595
3523792126
3523798352
3523803112
3523809704
3523816357
3523823315
3523828503
3523834057
3523842785
3523848950
3523854992
3523859142
3523867138
3523870556
3523878491
3523883556
3523890881
3523896496
3523902050
3523908886
3523914257
3523918896
3523924206
3523929821
3523934460
3523942150
3523948437
3523956615
3523961925
3523968517
3523973278
3523979015
3523985180
3523990612
3523995800
3524004650
3524009411
3524017101
3524021862
3524029186
3524033764
3524039623
3524047435
3524052562
3524057750
3524062450
3524067943
3524072704
3524077953
3524082714
3524089550
3524095714
3524099865
3524105846
3524109752
3524114269
3524120433
3524126049
3524130748
3524136486
3524141735
3524147899
3524152843
3524155895
3524162792
3524167064
3524173656
3524178417
3524184825
3524190563
3524195995
3524202525
3524207164
3524213206
3524218822
3524223582
3524229930
3524236705
3524240245
3524246532
3524251720
3524258067
3524261729
3524269176
3524273692
3524280528
3524285411
3524290843
3524296702
3524301646
3524307689
3524313670
3524319774
3524325267
3524328135
3524336253
3524341563
3524347239
3524351634
3524357676
3524365550
3524369883
3524376292
3524381053
3524386790
3524391490
3524396495
3524401805
3524407115
3524412669
3524419627
3524422618
3524429515
3524433726
3524441294
3524446116
3524450816
3524457163
3524463755
3524468211
3524473582
3524479258
3524484873
3524489390
3524494944
3524501597
3524508555
3524513560
3524519480
3524526011
3524531077
3524538523
3524544566
3524550364
3524557810
3524564036
3524570017
3524577036
3524583628
3524589365
3524596018
3524604502
3524610483
3524616465
3524621958
3524629465
3524635141
3524641672
3524647471
3524653818
3524658823
3524664621
3524669565
3524675852
3524681162
3524685678
3524691599
3524697702
3524702219
3524708567
3524713816
3524720163
3524725168
3524732065
3524738535
3524745127
3524748483
3524755564
3524762583
3524768991
3524775583
3524780710
3524786081
3524795053
3524800607
3524805917
3524810739
3524816843
3524823312
3524827524
3524832895
3524840585
3524846872
3524852365
3524856454
3524861703
3524867074
3524871347
3524877084
3524882028
3524888620
3524892892
3524898507
3524903390
3524907968
3524912729
3524917550
3524921579
3524927560
3524932748
3524937570
3524941415
3524946603
3524951425
3524956308
3524960275
3524965585
3524971505
3524976632
3524981027
3524987313
3524991464
3524995126
3525002633
3525007882
3525013619
3525018991
3525023019
3525028512
3525032968
3525035836
3525043832
3525049508
3525055001
3525058114
3525065377
3525069833
3525074288
3525078133
3525085153
3525091378
3525097421
3525102486
3525108163
3525112008
3525117318
3525121407
3525127816
3525132333
3525139718
3525144967
3525149911
3525155404
3525160409
3525166146
3525170357
3525176949
3525181710
3525187691
3525192391
3525198067
3525203133
3525208199
3525213143
3525217659
3525223946
3525228280
3525235116
3525239327
3525244515
3525250313
3525255318
3525263619
3525268441
3525274910
3525279122
3525286080
3525290413
3525297066
3525302803
3525311104
3525314400
3525320687
3525325875
3525332161
3525337105
3525343453
3525348641
3525353890
3525356758
3525365669
3525370308
3525375557
3525380379
3525385994
3525390938
3525396736
3525402351
3525410225
3525415047
3525420723
3525425178
3525429573
3525436043
3525440437
3525445808
3525450874
3525458137
3525464119
3525469124
3525474129
3525479561
3525484627
3525491096
3525497688
3525503975
3525510017
3525515022
3525519417
3525523994
3525530281
3525534919
3525541511
3525547004
3525554390
3525558357
3525564399
3525568855
3525574470
3525580207
3525585578
3525593147
3525598884
3525603645
3525608894
3525613960
3525618293
3525624092
3525628181
3525633674
3525639778
3525646430
3525650764
3525655525
3525661262
3525666145
3525670539
3525675239
3525681281
3525686530
3525690803
3525697211
3525701545
3525708259
3525713203
3525721015
3525726325
3525733588
3525738776
3525745917
3525750800
3525756782
3525761909
3525767646
3525770270
3525778144
3525781074
3525787177
3525791266
3525796882
3525802253
3525807013
3525814887
3525820319
3525824714
3525829841
3525834967
3525839423
3525845160
3525850653
3525855414
3525861457
3525866523
3525869941
3525876715
3525881537
3525886115
3525890204
3525895880
3525902899
3525908271
3525914374
3525919745
3525923895
3525930365
3525934760
3525940497
3525945441
3525952643
3525957587
3525963507
3525967780
3525972785
3525978217
3525983527
3525989386
3525995245
3526000739
3526005438
3526009650
3526015326
3526020331
3526025885
3526032172
3526036993
3526044256
3526047125
3526053290
3526059088
3526063727
3526067572
3526077093
3526084601
3526091559
3526095770
3526100531
3526105902
3526111700
3526116156
3526120855
3526127691
3526134100
3526138617
3526144415
3526150091
3526153326
3526160406
3526163458
3526171698
3526175116
3526183233
3526186834
3526193853
3526196417
3526202886
3526207403
3526213507
3526219488
3526225958
3526230596
3526235174
3526240362
3526244695
3526249822
3526254949
3526262090
3526268316
3526273077
3526280706
3526286504
3526291387
3526298406
3526304815
3526309820
3526317266
3526323247
3526327642
3526333440
3526339239
3526343999
3526350652
3526355657
3526360967
3526366094
3526372198
3526378301
3526384160
3526389165
3526395391
3526398687
3526405156
3526409734
3526416814
3526421819
3526427434
3526430608
3526439580
3526446599
3526453008
3526457952
3526464544
3526469731
3526475469
3526482671
3526488408
3526495366
3526500676
3526507329
3526512212
3526517705
3526524358
3526529912
3526535832
3526540349
3526546819
3526554387
3526559270
3526565068
3526569585
3526575505
3526581303
3526586125
3526592412
3526597050
3526602788
3526609319
3526615422
3526621770
3526630070
3526635991
3526642033
3526647526
3526652287
3526659062
3526665166
3526670903
3526677006
3526682866
3526690190
3526695805
3526700505
3526706486
3526713139
3526719243
3526725895
3526731572
3526737065
3526743290
3526749272
3526754887
3526760441
3526766728
3526772770
3526778263
3526782963
3526791020
3526797856
3526802861
3526808720
3526813359
3526818791
3526824345
3526831425
3526837040
3526842411
3526849125
3526852787
3526859318
3526864079
3526869083
3526876530
3526884464
3526889469
3526897160
3526903080
3526908451
3526914371
3526921268
3526926212
3526931522
3526936771
3526943790
3526947574
3526954410
3526959293
3526964176
3526968387
3526974613
3526980655
3526988041
3526992313
3526997989
3527003788
3527008671
3527014408
3527019840
3527027286
3527032901
3527039249
3527044559
3527048954
3527053470
3527059940
3527062809
3527069767
3527078800
3527084598
3527087528
3527095401
3527099918
3527106510
3527110843
3527117435
3527122562
3527129947
3527133853
3527141544
3527146304
3527151798
3527156375
3527162235
3527168704
3527176151
3527180606
3527185733
3527191470
3527196841
3527202640
3527206973
3527213260
3527220157
3527226688
3527232242
3527236697
3527240176
3527248050
3527250857
3527260440
3527266849
3527272342
3527275455
3527282290
3527286563
3527293643
3527298037
3527302920
3527309512
3527315799
3527320254
3527325625
3527331363
3527336551
3527342471
3527346682
3527352053
3527358828
3527364138
3527367190
3527374209
3527378482
3527384158
3527390078
3527395388
3527400393
3527407229
3527413027
3527418154
3527422488
3527427249
3527433657
3527438662
3527444644
3527450320
3527459109
3527465456
3527470583
3527478213
3527482607
3527487368
3527495791
3527500979
3527507937
3527512637
3527519106
3527523257
3527528384
3527535036
3527544619
3527549441
3527556093
3527562014
3527566469
3527571840
3527576479
3527579226
3527585329
3527589541
3527596316
3527600466
3527606630
3527610476
3527615481
3527620607
3527626650
3527632998
3527640078
3527644960
3527650270
3527655764
3527661440
3527666811
3527671816
3527679384
3527684206
3527690798
3527697389
3527702883
3527709658
3527715212
3527723085
3527729799
3527735353
3527740236
3527746584
3527750734
3527756838
3527761965
3527769533
3527775148
3527782289
3527787050
3527792177
3527796877
3527803712
3527807375
3527816164
3527819948
3527825624
3527831666
3527838258
3527842958
3527848451
3527854433
3527858644
3527865114
3527869020
3527875795
3527880433
3527885927
3527890626
3527896303
3527903505
3527908937
3527912111
3527918947
3527923646
3527930787
3527935487
3527942140
3527948121
3527953798
3527959779
3527965211
3527970765
3527975465
3527982057
3527986634
3527992433
3527999879
3528004457
3528011354
3528016175
3528021546
3528027589
3528034608
3528040833
3528045838
3528052064
3528058656
3528063722
3528069459
3528075623
3528080933
3528086549
3528092835
3528097718
3528102906
3528107667
3528112794
3528118226
3528124512
3528130738
3528135743
3528141236
3528145203
3528152283
3528157288
3528161866
3528167115
3528173890
3528179505
3528184632
3528189148
3528194459
3528198670
3528205750
3528212769
3528217102
3528223511
3528227601
3528233033
3528238343
3528242920
3528250794
3528257447
3528261536
3528267639
3528271424
3528276673
3528281800
3528286682
3528292664
3528299866
3528304627
3528310303
3528316162
3528320984
3528325195
3528331543
3528335694
3528341431
3528345642
3528353882
3528359070
3528364014
3528369629
3528375977
3528382202
3528386597
3528393005
3528398743
3528404175
3528408264
3528414307
3528422180
3528429626
3528435364
3528440796
3528446838
3528452392
3528455566
3528463867
3528470703
3528476745
3528482239
3528487732
3528493042
3528497497
3528503051
3528511963
3528518493
3528523559
3528529602
3528535705
3528541992
3528547241
3528553344
3528559448
3528565002
3528570800
3528577880
3528583740
3528587646
3528595092
3528600585
3528608276
3528612243
3528619079
3528622497
3528629699
3528635436
3528641235
3528646911
3528652038
3528657348
3528663024
3528668945
3528675597
3528680724
3528687072
3528693175
3528697204
3528704528
3528709960
3528714904
3528719115
3528726623
3528732787
3528740356
3528744750
3528749999
3528756103
3528762023
3528767943
3528774169
3528781005
3528786864
3528792724
3528798400
3528803588
3528810729
3528815245
3528820922
3528827391
3528833129
3528839232
3528844176
3528848571
3528854674
3528860350
3528865294
3528871947
3528877074
3528884215
3528888976
3528893370
3528899169
3528904235
3528910094
3528915587
3528922606
3528929503
3528935057
3528940001
3528944579
3528950560
3528957640
3528966307
3528972655
3528979369
3528983641
3528991331
3528994627
3529002684
3529005797
3529013487
3529017088
3529025511
3529030272
3529036864
3529041563
3529048216
3529054442
3529059324
3529066466
3529071592
3529078184
3529085142
3529092283
3529097899
3529104857
3529110655
3529118406
3529124144
3529131041
3529138365
3529144285
3529149107
3529156492
3529162291
3529168882
3529177366
3529184507
3529190916
3529196043
3529202757
3529207517
3529213865
3529219602
3529225828
3529229917
3529236631
3529242307
3529247434
3529251890
3529257322
3529262632
3529267637
3529274534
3529277403
3529284666
3529289060
3529295835
3529300230
3529306882
3529311460
3529318906
3529323362
3529329893
3529334226
3529340024
3529345884
3529350400
3529356565
3529364499
3529369382
3529375852
3529382749
3529388364
3529392637
3529398313
3529405515
3529412595
3529418393
3529424375
3529428708
3529434995
3529439573
3529445310
3529452024
3529457334
3529463254
3529467710
3529474423
3529479673
3529485349
3529489682
3529497190
3529502622
3529508176
3529515195
3529521543
3529526853
3529531552
3529537412
3529542661
3529548703
3529553403
3529559262
3529564511
3529569516
3529574643
3529579037
3529585690
3529593198
3529598813
3529604062
3529609067
3529613583
3529619870
3529624448
3529629636
3529636532
3529641598
3529647336
3529652157
3529657162
3529662472
3529668881
3529671750
3529679318
3529686642
3529693539
3529697079
3529703488
3529708493
3529714230
3529718686
3529725521
3529731442
3529737912
3529744625
3529750302
3529756588
3529762448
3529766903
3529773190
3529779965
3529785092
3529790829
3529796871
3529800961
3529806515
3529812130
3529816952
3529823849
3529829891
3529833981
3529839901
3529845211
3529850216
3529855892
3529861141
3529867489
3529872799
3529879269
3529886349
3529891842
3529898617
3529904110
3529907833
3529916866
3529923397
3529929195
3529934383
3529941158
3529946163
3529952694
3529959102
3529964535
3529972408
3529976314
3529983333
3529989376
3529995907
3530000789
3530006710
3530011715
3530019283
3530026363
3530035640
3530039119
3530046138
3530050777
3530058834
3530063716
3530070186
3530074703
3530082027
3530086421
3530091793
3530098262
3530104061
3530108394
3530115230
3530119930
3530125728
3530130794
3530133907
3530142635
3530145747
3530152828
3530158443
3530164546
3530171748
3530177242
3530181758
3530187862
3530192134
3530198054
3530202449
3530207210
3530214473
3530221370
3530226680
3530231441
3530236507
3530241633
3530247066
3530251582
3530257442
3530264583
3530269771
3530274104
3530279841
3530285579
3530290156
3530295833
3530301387
3530306636
3530311335
3530318171
3530322932
3530328059
3530333491
3530338740
3530344538
3530349849
3530358332
3530363948
3530368281
3530375666
3530380305
3530387080
3530391902
3530397517
3530403926
3530408808
3530414607
3530419123
3530425105
3530428706
3530435175
3530437983
3530445307
3530450190
3530456843
3530461054
3530467097
3530473017
3530478022
3530483759
3530490290
3530496149
3530501093
3530505976
3530512141
3530517145
3530520075
3530528681
3530531611
3530538386
3530545099
3530551569
3530557245
3530562433
3530565485
3530573725
3530578303
3530584162
3530591181
3530596247
3530600641
3530606562
3530612909
3530618769
3530623041
3530627192
3530634272
3530639276
3530646295
3530652155
3530658808
3530664789
3530671137
3530676813
3530684198
3530686273
3530694391
3530700678
3530705988
3530709039
3530716120
3530720453
3530728204
3530733942
3530739618
3530744074
3530750116
3530756403
3530762201
3530766901
3530773309
3530778497
3530785699
3530790643
3530793634
3530801080
3530805780
3530812128
3530818719
3530824396
3530830621
3530836053
3530840753
3530846857
3530851129
3530857477
3530861810
3530864618
3530872125
3530879022
3530884454
3530887506
3530895562
3530900934
3530905877
3530910333
3530915521
3530923394
3530929681
3530934625
3530940911
3530945489
3530951776
3530958490
3530963189
3530968804
3530976617
3530982110
3530988458
3530993951
3530999566
3531003900
3531008782
3531015557
3531021539
3531027093
3531031487
3531037347
3531041619
3531048333
3531052667
3531058953
3531065240
3531070123
3531076043
3531080498
3531086175
3531090447
3531096856
3531101617
3531107171
3531110406
3531119561
3531122613
3531130486
3531134759
3531140435
3531146477
3531151787
3531158440
3531165093
3531169549
3531175286
3531181084
3531187005
3531191643
3531195183
3531202874
3531209832
3531216484
3531220879
3531226006
3531230889
3531236870
3531241265
3531249443
3531255486
3531261589
3531266167
3531272331
3531276665
3531283074
3531287407
3531294121
3531300774
3531306755
3531311394
3531317986
3531321892
3531327324
3531333122
3531336662
3531342888
3531348076
3531354546
3531359551
3531365959
3531370781
3531375481
3531381401
3531386772
3531391472
3531397880
3531403740
3531407280
3531413872
3531418999
3531424065
3531427605
3531435783
3531442619
3531448356
3531455253
3531461662
3531466362
3531473076
3531477531
3531483146
3531491203
3531497184
3531501518
3531506950
3531512687
3531517692
3531524162
3531532219
3531537651
3531543388
3531548759
3531555351
3531559806
3531567497
3531572319
3531578971
3531583244
3531591300
3531598014
3531602409
3531608085
3531612785
3531616142
3531622672
3531628898
3531635734
3531639091
3531646110
3531651969
3531657157
3531659965
3531667838
3531674918
3531680045
3531685722
3531690543
3531693290
3531700126
3531706718
3531712394
3531715446
3531723319
3531728385
3531736747
3531739615
3531745963
3531752372
3531758048
3531762198
3531771110
3531774527
3531781913
3531787101
3531792289
3531797538
3531803519
3531810050
3531816642
3531821769
3531826896
3531830252
3531837332
3531840201
3531847464
3531854483
3531859976
3531865287
3531870841
3531875479
3531882376
3531886771
3531891715
3531898612
3531904471
3531910391
3531914969
3531920645
3531924307
3531931448
3531934927
3531942069
3531949027
3531954276
3531957571
3531964590
3531969412
3531975394
