9115337138
9115343119
9115348734
9115354533
9115360209
9115366435
9115372111
9115377421
9115384196
9115391703
9115396708
9115401835
9115409525
9115416178
9115423869
9115429850
9115435526
9115444071
9115451090
9115456766
9115463724
9115470438
9115478617
9115485636
9115491801
9115498881
9115504801
9115513224
9115520914
9115528422
9115536478
9115545694
9115554667
9115561930
9115573221
9115581827
9115590799
9115598307
9115604654
9115614481
9115622049
9115630045
9115637979
9115643472
9115650614
9115656351
9115665140
9115671793
9115679605
9115686807
9115693704
9115702127
9115709512
9115716287
9115723672
9115729959
9115735757
9115744058
9115749795
9115757730
9115763467
9115771219
9115779581
9115786539
9115794412
9115801309
9115807840
9115815042
9115821145
9115828714
9115837137
9115842752
9115852456
9115857888
9115866677
9115872171
9115881082
9115886636
9115895974
9115901589
9115911294
9115916909
9115927224
9115934731
9115943704
9115949929
9115956826
9115966103
9115971963
9115980813
9115986794
9115992898
9116001443
9116008401
9116016640
9116024453
9116031716
9116036904
9116046303
9116054299
9116059670
9116067177
9116075295
9116083352
9116090005
9116098794
9116105935
9116112771
9116120217
9116128762
9116136086
9116144875
9116151040
9116157082
9116165810
9116174660
9116179970
9116191017
9116197182
9116205727
9116213112
9116221047
9116229103
9116236916
9116250832
9116259560
9116267922
9116274941
9116282997
9116291054
9116297401
9116306862
9116314735
9116322365
9116330727
9116337562
9116345619
9116353065
9116361244
9116368080
9116374306
9116383034
9116389625
9116398292
9116404762
9116412636
9116419594
9116428444
9116434913
9116443702
9116449684
9116457862
9116464027
9116474037
9116482460
9116489540
9116494728
9116504005
9116509193
9116518104
9116526466
9116533973
9116539832
9116547401
9116555457
9116562599
9116569190
9116576637
9116584693
9116592933
9116600929
9116607154
9116614295
9116622474
9116630408
9116636939
9116644813
9116654395
9116660682
9116667029
9116676246
9116683509
9116691016
9116698279
9116706214
9116713355
9116721717
9116728980
9116736609
9116743872
9116751502
9116758704
9116766089
9116775428
9116781104
9116790015
9116795630
9116805091
9116810706
9116818457
9116826514
9116836035
9116840613
9116849463
9116858801
9116865820
9116872534
9116877905
9116887305
9116893835
9116902869
9116908850
9116916663
9116923560
9116932165
9116941443
9116949927
9116958472
9116965002
9116972815
9116978979
9116987829
9116996435
9117005713
9117012732
9117021216
9117027807
9117036169
9117042517
9117050451
9117056677
9117066442
9117074072
9117081274
9117086340
9117094274
9117098547
9117110510
9117117529
9117123083
9117131994
9117137548
9117146826
9117152258
9117160925
9117168981
9117175512
9117183263
9117191076
9117196874
9117204015
9117211706
9117218481
9117224706
9117233739
9117239843
9117248998
9117255895
9117261999
9117268102
9117276952
9117284521
9117293371
9117298375
9117306676
9117315282
9117322728
9117328588
9117336217
9117346898
9117353002
9117360265
9117367955
9117375890
9117381749
9117389379
9117396031
9117403905
9117411901
9117420201
9117427648
9117435582
9117443700
9117451329
9117459813
9117467320
9117474828
9117482030
9117489415
9117495702
9117504369
9117513036
9117520665
9117528416
9117535924
9117543126
9117550694
9117557774
9117566136
9117573460
9117581090
9117589268
9117597569
9117604710
9117611119
9117617894
9117626866
9117634495
9117642674
9117650669
9117657933
9117665501
9117672886
9117679783
9117687046
9117693089
9117699192
9117706700
9117713963
9117721958
9117728611
9117736241
9117740269
9117751072
9117757847
9117766880
9117776280
9117786106
9117793674
9117800632
9117808445
9117815525
9117823765
9117830784
9117839085
9117846287
9117853733
9117860691
9117867222
9117872715
9117880039
9117885471
9117893650
9117898166
9117906406
9117913364
9117919468
9117925632
9117931003
9117940342
9117945408
9117952121
9117957065
9117964267
9117970737
9117977085
9117983921
9117990207
9117998081
9118002109
9118010593
9118017551
9118024753
9118031772
9118037448
9118043247
9118050449
9118057041
9118062839
9118067478
9118074985
9118080478
9118087131
9118093234
9118099155
9118105685
9118111545
9118117587
9118125217
9118130588
9118136752
9118142856
9118148227
9118155612
9118162753
9118168979
9118176364
9118183505
9118189548
9118195346
9118204318
9118211642
9118218478
9118225131
9118232272
9118238986
9118244540
9118251864
9118259982
9118266330
9118272860
9118281649
9118285556
9118294406
9118300936
9118307467
9118314791
9118320223
9118326571
9118332980
9118339816
9118346163
9118352389
9118357943
9118365328
9118372042
9118378024
9118384005
9118389986
9118396029
9118402132
9118408541
9118413363
9118420321
9118425631
9118433138
9118438692
9118444735
9118449312
9118460116
9118465792
9118473116
9118479159
9118484835
9118491060
9118499849
9118504854
9118514376
9118521456
9118527742
9118534090
9118541780
9118547884
9118556185
9118562654
9118570772
9118577791
9118584322
9118590547
9118598116
9118604036
9118611666
9118618440
9118626863
9118631319
9118639131
9118645479
9118654451
9118661348
9118667024
9118673250
9118682283
9118689546
9118695650
9118700471
9118706941
9118713655
9118719698
9118727693
9118733369
9118739473
9118744173
9118750886
9118756257
9118760652
9118768831
9118774263
9118780671
9118784822
9118792085
9118796541
9118803132
9118809480
9118815400
9118823152
9118827913
9118835115
9118840730
9118846772
9118850984
9118858613
9118865937
9118870271
9118876557
9118882539
9118889131
9118893403
9118900178
9118906770
9118912873
9118917390
9118923676
9118930085
9118937226
9118942658
9118948029
9118955171
9118961152
9118967622
9118972932
9118979157
9118985566
9118991792
9118995454
9119002412
9119009125
9119013581
9119020966
9119025483
9119032014
9119037934
9119043366
9119048859
9119055146
9119062592
9119066010
9119073151
9119079255
9119085053
9119090180
9119096467
9119103302
9119106659
9119114472
9119119233
9119125336
9119132538
9119138642
9119145295
9119151947
9119157990
9119163361
9119169892
9119175507
9119182160
9119188019
9119194794
9119199738
9119206452
9119212494
9119217804
9119224396
9119230805
9119237396
9119242340
9119249725
9119255890
9119262543
9119270050
9119275665
9119282990
9119289948
9119296722
9119302704
9119309906
9119315521
9119321442
9119329559
9119335968
9119341095
9119348541
9119352814
9119361725
9119367157
9119373321
9119379242
9119385284
9119388824
9119396698
9119404754
9119409637
9119416961
9119424469
9119429840
9119436615
9119441253
9119450531
9119456695
9119462554
9119472503
9119478729
9119485565
9119490203
9119498565
9119505767
9119512054
9119517181
9119524139
9119529876
9119537322
9119544341
9119550933
9119558074
9119564849
9119570342
9119577361
9119583343
9119589202
9119597808
9119604888
9119609954
9119617034
9119623565
9119628326
9119635284
9119641692
9119647674
9119655486
9119659148
9119667632
9119672881
9119678740
9119685882
9119692290
9119698577
9119704863
9119709502
9119715606
9119722564
9119728545
9119735686
9119742583
9119749419
9119755400
9119759978
9119766448
9119773528
9119780425
9119786772
9119793059
9119799956
9119805266
9119811858
9119818022
9119827178
9119832793
9119840117
9119846526
9119852690
9119858977
9119865019
9119871184
9119877226
9119884001
9119889922
9119895964
9119901945
9119906523
9119914946
9119920134
9119926848
9119932280
9119938078
9119941923
9119949064
9119955107
9119960112
9119967131
9119973601
9119979826
9119985869
9119992827
9119998991
9120005583
9120013517
9120019133
9120026274
9120030119
9120041166
9120050749
9120056669
9120063200
9120066740
9120074491
9120080717
9120087248
9120092924
9120098234
9120104215
9120111173
9120115568
9120122831
9120126310
9120134611
9120141081
9120145414
9120151701
9120156095
9120163236
9120170255
9120175626
9120182951
9120188200
9120193632
9120199552
9120203825
9120212064
9120217557
9120223295
9120228300
9120235074
9120240873
9120245878
9120251737
9120257230
9120263944
9120270475
9120276456
9120282377
9120287137
9120294095
9120300870
9120307035
9120311002
9120318265
9120325223
9120332425
9120337308
9120344693
9120350614
9120357144
9120362516
9120368619
9120376065
9120382901
9120390164
9120396390
9120402127
9120408963
9120416959
9120424588
9120428128
9120437222
9120443265
9120449735
9120457730
9120462308
9120470975
9120475613
9120482755
9120485013
9120494046
9120501920
9120506985
9120514798
9120520840
9120527493
9120534695
9120540005
9120547940
9120555752
9120562039
9120569485
9120575100
9120583340
9120590237
9120596524
9120604275
9120611172
9120616848
9120622403
9120629300
9120636135
9120642300
9120650479
9120657376
9120663174
9120671536
9120681301
9120687710
9120694851
9120701870
9120707607
9120714749
9120721584
9120727749
9120735684
9120743313
9120748806
9120755703
9120761501
9120768337
9120775356
9120783291
9120789883
9120795681
9120803310
9120808681
9120816128
9120821987
9120829372
9120836208
9120843044
9120849026
9120856411
9120862575
9120867397
9120874294
9120881984
9120888881
9120894008
9120900295
9120906643
9120912746
9120918300
9120924648
9120931789
9120937648
9120943935
9120950710
9120956325
9120961574
9120969509
9120976894
9120982265
9120988307
9120993251
9121001186
9121005702
9121013881
9121021144
9121026515
9121032375
9121037685
9121042262
9121047023
9121055141
9121062343
9121067592
9121072292
9121079982
9121085048
9121092433
9121100124
9121103969
9121111720
9121119655
9121126796
9121132167
9121138942
9121144374
9121150233
9121157374
9121163661
9121170253
9121177394
9121183803
9121189906
9121194667
9121202113
9121207972
9121213710
9121220668
9121226527
9121233119
9121238246
9121244227
9121250087
9121255702
9121261073
9121267420
9121273402
9121278712
9121285060
9121287989
9121299647
9121305262
9121309840
9121317408
9121323451
9121328150
9121333827
9121339320
9121345423
9121350245
9121356471
9121362330
9121367884
9121373255
9121378992
9121384303
9121391627
9121396510
9121403345
9121407191
9121413599
9121419520
9121424769
9121431788
9121437281
9121443506
9121450037
9121454493
9121461512
9121467432
9121474634
9121480005
9121485682
9121492395
9121496424
9121503199
9121507410
9121516260
9121521265
9121528894
9121535181
9121540552
9121547327
9121551783
9121560083
9121565088
9121572351
9121577844
9121586145
9121592188
9121597254
9121605310
9121611658
9121619043
9121626672
9121632837
9121638574
9121643335
9121651453
9121658106
9121665308
9121670679
9121679407
9121686792
9121692041
9121699914
9121707117
9121713647
9121720117
9121726831
9121732568
9121738550
9121745813
9121752038
9121758325
9121764184
9121769861
9121778222
9121782617
9121791223
9121796106
9121803674
9121809228
9121815515
9121818994
9121826989
9121835107
9121840722
9121848718
9121853784
9121859338
9121867211
9121875146
9121883996
9121888757
9121896447
9121903649
9121908837
9121914758
9121922814
9121929650
9121936242
9121942956
9121949181
9121955163
9121961083
9121966821
9121971398
9121979943
9121985741
9121991784
9121998559
9122005700
9122011193
9122018700
9122027062
9122033959
9122039879
9122046044
9122050500
9122058251
9122064538
9122070580
9122078148
9122083275
9122089562
9122095971
9122104271
9122111412
9122118676
9122125267
9122129662
9122137413
9122144127
9122148888
9122156456
9122161339
9122170433
9122175377
9122181725
9122186547
9122193505
9122203026
9122210777
9122217186
9122224083
9122229942
9122237389
9122243248
9122250389
9122257408
9122263512
9122270103
9122276512
9122283897
9122288231
9122296104
9122302818
9122310020
9122314964
9122321861
9122329002
9122334007
9122341514
9122346214
9122354149
9122357872
9122365867
9122370994
9122376182
9122382713
9122389305
9122394493
9122399803
9122405662
9122411277
9122415672
9122423118
9122428794
9122434227
9122438987
9122443809
9122448448
9122453819
9122459983
9122465354
9122470359
9122474815
9122480064
9122485191
9122490501
9122495933
9122502220
9122507285
9122513816
9122517722
9122523399
9122528526
9122535545
9122541587
9122547263
9122553916
9122559776
9122565269
9122571189
9122576499
9122582297
9122587913
9122593650
9122601218
9122606528
9122614585
9122619712
9122625022
9122631064
9122635520
9122642295
9122647056
9122653403
9122659385
9122664390
9122671164
9122675986
9122681174
9122689414
9122695701
9122702170
9122709494
9122717002
9122722617
9122729392
9122736594
9122743918
9122750876
9122757407
9122762717
9122770468
9122777365
9122784445
9122792563
9122797141
9122804648
9122809104
9122816855
9122822897
9122829978
9122836325
9122843832
9122850851
9122857077
9122863364
9122870810
9122877646
9122882895
9122889670
9122896323
9122904440
9122909811
9122917807
9122924032
9122931113
9122937948
9122944052
9122950583
9122958883
9122967001
9122972250
9122979208
9122982870
9122993124
9122999106
9123006247
9123011923
9123019369
9123025900
9123032125
9123038412
9123045797
9123052694
9123059591
9123066183
9123071981
9123078390
9123084921
9123092306
9123099081
9123105551
9123111593
9123118490
9123125753
9123131063
9123138204
9123146139
9123152792
9123159322
9123167074
9123172445
9123178121
9123185384
9123192647
9123198690
9123206075
9123212118
9123218893
9123223775
9123231954
9123237142
9123244649
9123252218
9123257406
9123264730
9123270711
9123276937
9123282796
9123290120
9123297261
9123304158
9123310872
9123317098
9123324788
9123330709
9123339742
9123346639
9123351338
9123359151
9123364095
9123372701
9123379476
9123385579
9123390584
9123398213
9123404805
9123410481
9123417745
9123423055
9123430623
9123438863
9123444356
9123450765
9123455586
9123463826
9123470418
9123477254
9123481770
9123489522
9123497273
9123503682
9123509541
9123516011
9123522908
9123528401
9123533284
9123539387
9123544880
9123552022
9123558003
9123564595
9123570637
9123575520
9123581440
9123585774
9123592183
9123599812
9123605305
9123611103
9123616475
9123622273
9123628682
9123635090
9123641499
9123646809
9123652668
9123659077
9123664753
9123670918
9123675678
9123682087
9123686543
9123694172
9123699238
9123705158
9123712238
9123718403
9123723774
9123731281
9123735981
9123741718
9123748127
9123753315
9123759907
9123764729
9123772175
9123777851
9123783283
9123789448
9123796039
9123803059
9123808430
9123813312
9123820759
9123827473
9123833393
9123838215
9123846393
9123853473
9123860920
9123868122
9123873920
9123880939
9123887897
9123895588
9123901691
9123907856
9123914264
9123921222
9123927753
9123933307
9123940815
9123947467
9123953205
9123960102
9123966144
9123972064
9123979877
9123984027
9123991168
9123995624
9124003681
9124010639
9124017413
9124024555
9124029926
9124036578
9124042255
9124049518
9124055988
9124062396
9124069598
9124075946
9124083087
9124089191
9124095050
9124102435
9124108783
9124116168
9124122150
9124128314
9124134906
9124140826
9124145404
9124152057
9124160235
9124165606
9124171954
9124178424
9124183856
9124190142
9124196246
9124201861
9124209857
9124216449
9124222308
9124227984
9124234637
9124240252
9124246356
9124254351
9124261798
9124266863
9124272357
9124279681
9124285662
9124292193
9124299273
9124306170
9124313128
9124319537
9124326006
9124331561
9124339556
9124346697
9124353167
9124361712
9124366717
9124374285
9124379839
9124387163
9124394976
9124400042
9124407549
9124415423
9124422503
9124428789
9124436480
9124444597
9124452227
9124458452
9124464007
9124470476
9124477312
9124484819
9124491167
9124495867
9124501665
9124505816
9124514971
9124520159
9124526628
9124532671
9124537615
9124544451
9124550005
9124556047
9124559893
9124568254
9124575701
9124580889
9124587358
9124592729
9124599199
9124604692
9124611833
9124618425
9124624590
9124630937
9124636064
9124644365
9124647905
9124654985
9124662431
9124669572
9124675737
9124680925
9124687456
9124693193
9124699663
9124704668
9124713701
9124721086
9124727006
9124733537
9124738603
9124743852
9124749833
9124755693
9124762407
9124767106
9124774797
9124779680
9124785356
9124792924
9124797807
9124804521
9124808549
9124814775
9124820146
9124826738
9124833207
9124838945
9124845475
9124852372
9124856706
9124863481
9124868424
9124875016
9124879350
9124887223
9124893083
9124898087
9124904618
9124909867
9124917436
9124923356
9124929887
9124936906
9124942643
9124960709
9124967240
9124973893
9124980485
9124987870
9124993119
9125000626
9125004655
9125013138
9125017960
9125024186
9125029496
9125036271
9125042557
9125048478
9125055985
9125062150
9125068375
9125074601
9125081131
9125088639
9125096268
9125103409
9125109146
9125115311
9125122452
9125129349
9125135636
9125141312
9125148148
9125154129
9125161026
9125167618
9125173477
9125181412
9125186783
9125193680
9125198624
9125204971
9125210526
9125218643
9125226456
9125232925
9125240372
9125246048
9125251724
9125258072
9125264542
9125271561
9125277664
9125285232
9125292435
9125296829
9125305679
9125310135
9125318374
9125323562
9125331131
9125338089
9125343948
9125350479
9125357498
9125364029
9125371048
9125376846
9125384414
9125389297
9125396194
9125401992
9125410537
9125416763
9125423721
9125429458
9125435867
9125441970
9125447769
9125456375
9125462722
9125469863
9125477554
9125482742
9125489089
9125495803
9125503616
9125511550
9125518447
9125525832
9125531204
9125540176
9125548721
9125555923
9125562209
9125568679
9125575027
9125582839
9125587478
9125595901
9125600905
9125608718
9125615676
9125622268
9125629043
9125635268
9125643386
9125649550
9125655410
9125664138
9125669692
9125675673
9125682265
9125688918
9125695449
9125701430
9125708327
9125712416
9125719558
9125726699
9125732985
9125738356
9125746108
9125750746
9125759780
9125764662
9125772658
9125777358
9125784743
9125791030
9125796584
9125802443
9125807143
9125815627
9125820631
9125826308
9125833571
9125838332
9125843520
9125850905
9125857191
9125864394
9125871413
9125878126
9125885634
9125891798
9125898268
9125904677
9125909926
9125915419
9125920668
9125926832
9125932020
9125937086
9125944410
9125949293
9125955641
9125960585
9125966566
9125972487
9125978285
9125984022
9125989698
9125995314
9125999952
9126007093
9126012098
9126017958
9126024733
9126030714
9126036146
9126041517
9126048902
9126052626
9126059767
9126067213
9126073561
9126080641
9126086378
9126092664
9126099012
9126104017
9126112745
9126117262
9126125623
9126130933
9126136671
9126142835
9126149549
9126156751
9126162611
9126168836
9126174207
9126178602
9126185071
9126190626
9126198377
9126204725
9126211072
9126217481
9126223585
9126229566
9126236402
9126242872
9126248365
9126255140
9126262098
9126268201
9126273999
9126280042
9126286267
9126292615
9126299390
9126304517
9126311231
9126317762
9126323194
9126330518
9126338819
9126342786
9126350354
9126356275
9126362500
9126368787
9126374951
9126383130
9126388806
9126395764
9126401318
9126409131
9126412793
9126420178
9126427991
9126433301
9126441724
9126446790
9126453076
9126458386
9126467908
9126472119
9126480359
9126486767
9126491284
9126497937
9126504895
9126510876
9126517102
9126524548
9126531201
9126537304
9126543774
9126548840
9126556897
9126563794
9126570446
9126575940
9126582592
9126588757
9126595654
9126600598
9126607556
9126615307
9126621716
9126628613
9126635815
9126643811
9126651440
9126657665
9126665966
9126671337
9126678784
9126685192
9126692577
9126698803
9126705700
9126712475
9126717541
9126725292
9126732555
9126739025
9126744946
9126750805
9126758495
9126762463
9126770214
9126777599
9126784252
9126789989
9126795971
9126804149
9126810375
9126816479
9126822887
9126829113
9126834667
9126841198
9126847057
9126852489
9126858349
9126864147
9126870067
9126873546
9126882946
9126888622
9126894725
9126901317
9126905834
9126912975
9126917675
9126925426
9126930614
9126938671
9126942333
9126949108
9126954540
9126960704
9126966686
9126972911
9126980358
9126987438
9126994151
9126999523
9127005992
9127011058
9127018138
9127024486
9127031993
9127038036
9127043590
9127050792
9127055614
9127063365
9127070933
9127076793
9127082530
9127086864
9127092540
9127097240
9127104259
9127110484
9127114879
9127122020
9127127391
9127132579
9127139354
9127144420
9127150462
9127157298
9127163524
9127168712
9127174571
9127181346
9127188182
9127194224
9127201976
9127206553
9127214610
9127220652
9127226756
9127233653
9127238841
9127244029
9127249705
9127254954
9127261790
9127266978
9127274729
9127279368
9127286265
9127290293
9127297556
9127304331
9127310557
9127316538
9127321177
9127328379
9127335337
9127339610
9127346079
9127352793
9127359202
9127362803
9127370920
9127377085
9127381785
9127389841
9127395579
9127402598
9127408457
9127420725
9127427744
9127433298
9127441111
9127447458
9127454050
9127460703
9127467234
9127474863
9127480478
9127488657
9127496286
9127502634
9127509836
9127515146
9127521982
9127526194
9127534983
9127541818
9127548776
9127555368
9127560434
9127567819
9127572946
9127581369
9127585642
9127593698
9127600839
9127606821
9127614877
9127620371
9127627145
9127635019
9127641794
9127648325
9127653024
9127660348
9127664865
9127671274
9127678598
9127685434
9127690317
9127698434
9127703683
9127710641
9127716806
9127723703
9127730111
9127735971
9127742929
9127751535
9127756845
9127765023
9127770639
9127779123
9127786203
9127792428
9127800973
9127805917
9127814218
9127818246
9127826242
9127833322
9127840158
9127846444
9127851388
9127857980
9127863290
9127872323
9127877999
9127883859
9127889169
9127896493
9127902535
9127908517
9127916634
9127923409
9127930795
9127938302
9127945565
9127951730
9127958810
9127965401
9127973092
9127979867
9127985848
9127993539
9127999520
9128006905
9128014535
9128020516
9128027718
9128033211
9128039254
9128044381
9128050728
9128057015
9128064705
9128070076
9128075142
9128081917
9128089058
9128094612
9128101754
9128107796
9128113961
9128120735
9128128182
9128131722
9128138741
9128146919
9128151863
9128158821
9128163948
9128172005
9128177986
9128182869
9128190315
9128195198
9128201912
9128208748
9128214180
9128219429
9128223640
9128230659
9128235359
9128242622
9128247993
9128252876
9128258552
9128264107
9128271065
9128275398
9128281563
9128286384
9128292061
9128299446
9128306404
9128311897
9128318062
9128324531
9128330879
9128336860
9128342720
9128348884
9128355415
9128360664
9128365791
9128372078
9128376472
9128383125
9128389289
9128394966
9128401680
9128406013
9128412971
9128418342
9128425300
9128431709
9128436958
9128443550
9128449043
9128454719
9128458747
9128466010
9128474861
9128480293
9128485847
9128490852
9128499213
9128504707
9128509895
9128517097
9128523933
9128530158
9128534675
9128541572
9128547553
9128554511
9128562568
9128569587
9128575507
9128580207
9128586799
9128593329
9128599555
9128605170
9128613044
9128617072
9128625312
9128632209
9128639228
9128645881
9128651191
9128658759
9128664618
9128670966
9128675849
9128682868
9128688422
9128695197
9128703864
9128711554
9128717047
9128724433
9128729926
9128734809
9128742072
9128750006
9128754645
9128763190
9128768866
9128775885
9128783209
9128789008
9128796698
9128803778
9128810980
9128817023
9128823553
9128827216
9128835638
9128843390
9128849127
9128855658
9128863348
9128869757
9128875433
9128881598
9128887274
9128895575
9128902899
9128909002
9128915045
9128921087
9128926642
9128932989
9128940741
9128946295
9128952948
9128957892
9128964666
9128969427
9128977118
9128981268
9128990484
9128995855
9129002569
9129008795
9129013311
9129020452
9129025518
9129035589
9129041571
9129047918
9129054876
9129060613
9129068548
9129073126
9129080694
9129086004
9129093145
9129100164
9129106207
9129112615
9129120245
9129127447
9129133062
9129140203
9129145147
9129151434
9129156621
9129164556
9129171270
9129178350
9129184331
9129189702
9129196966
9129203374
9129209539
9129217229
9129222539
9129229314
9129235174
9129241277
9129246404
9129253972
9129257818
9129265081
9129271733
9129277959
9129284734
9129289617
9129296392
9129302800
9129308660
9129314824
9129320989
9129327214
9129332097
9129337956
9129345952
9129351811
9129357121
9129363591
9129370305
9129376714
9129384099
9129389897
9129396184
9129401738
9129408635
9129415227
9129420537
9129426518
9129432133
9129440190
9129444524
9129452031
9129458256
9129464177
9129469304
9129474797
9129481816
9129486088
9129493046
9129499516
9129505864
9129512028
9129516728
9129523686
9129529667
9129535038
9129541081
9129546879
9129552739
9129556523
9129564457
9129570744
9129577031
9129582402
9129588261
9129593083
9129598332
9129606877
9129610783
9129617436
9129623966
9129629948
9129635502
9129641239
9129649052
9129655155
9129660954
9129666935
9129673100
9129677555
9129683842
9129689518
9129694462
9129701725
9129706181
9129713322
9129720585
9129727177
9129734440
9129741337
9129747868
9129755131
9129760258
9129766849
9129772343
9129779117
9129786320
9129792301
9129799564
9129804752
9129812015
9129816044
9129825748
9129831913
9129838199
9129844974
9129851505
9129857853
9129863468
9129871280
9129875309
9129882511
9129888858
9129895023
9129900699
9129905521
9129914615
9129919925
9129926456
9129932254
9129938785
9129946720
9129951236
9129959781
9129965579
9129973758
9129981326
9129988040
9129994937
9130000125
9130009036
9130015628
9130022708
9130027469
9130034427
9130040897
9130045352
9130054324
9130059878
9130066592
9130071536
9130078799
9130084292
9130090457
9130097232
9130104007
9130110049
9130117251
9130124637
9130128604
9130136355
9130143130
9130149722
9130156070
9130162906
9130168277
9130173770
9130181277
9130188174
9130194155
9130201541
9130206485
9130213992
9130219973
9130226504
9130234744
9130239565
9130247012
9130253359
9130259707
9130264834
9130273318
9130277468
9130285342
9130292178
9130298220
9130305788
9130311160
9130318789
9130324221
9130332217
9130339602
9130346621
9130352969
9130360354
9130367251
9130371950
9130379519
9130384646
9130390871
9130395632
9130402407
9130408755
9130414431
9130422243
9130426943
9130434389
9130439760
9130446352
9130452578
9130459536
9130466249
9130473391
9130478579
9130483583
9130490847
9130494692
9130501955
9130508913
9130514345
9130520876
9130527529
9130532656
9130537905
9130544802
9130550356
9130557802
9130565492
9130570741
9130578798
9130585146
9130591982
9130598634
9130604250
9130611330
9130617494
9130623293
9130629030
9130634584
9130642213
9130648866
9130654970
9130660036
9130665895
9130670961
9130676027
9130682619
9130688234
9130694581
9130698366
9130704896
9130710634
9130715883
9130720216
9130727479
9130732606
9130739381
9130744508
9130749940
9130755128
9130760133
9130767884
9130773256
9130779542
9130785218
9130790834
9130797181
9130803407
9130809938
9130814576
9130821595
9130827394
9130834291
9130839295
9130845704
9130852174
9130857057
9130863587
9130868592
9130875184
9130880616
9130886353
9130892518
9130899354
9130905396
9130910706
9130917603
9130922730
9130932069
9130937073
9130945863
9130951783
9130959290
9130966614
9130973572
9130978211
9130986695
9130993348
9130999451
9131004273
9131012574
9131016297
9131024842
9131031922
9131036683
9131044739
9131050232
9131057373
9131063599
9131070496
9131076538
9131082825
9131090699
9131096314
9131104370
9131110230
9131116394
9131124756
9131131653
9131138855
9131145569
9131152832
9131159546
9131166321
9131173828
9131179382
9131186646
9131192993
9131199768
9131207397
9131212891
9131220642
9131227661
9131233643
9131240112
9131246277
9131252624
9131257263
9131266357
9131271667
9131277954
9131283630
9131291015
9131296020
9131303039
9131309021
9131314880
9131322693
9131328918
9131335754
9131340454
9131349609
9131358459
9131363159
9131369751
9131376770
9131382446
9131387634
9131396179
9131403747
9131410400
9131417846
9131424316
9131431396
9131436767
9131444213
9131449828
9131456603
9131463622
9131470031
9131476745
9131482421
9131488769
9131494201
9131503295
9131509338
9131515868
9131521300
9131531066
9131535216
9131543395
9131547912
9131555724
9131563109
9131568908
9131574523
9131580382
9131585876
9131592711
9131600341
9131605407
9131611266
9131617614
9131624877
9131630370
9131636657
9131643065
9131649230
9131656371
9131659789
9131667723
9131673278
9131679625
9131687438
9131693907
9131700072
9131705382
9131712218
9131717528
9131724608
9131731444
9131736998
9131744628
9131749999
9131755309
9131761046
9131767882
9131777281
9131782958
9131789549
9131795042
9131800841
9131806029
9131811278
9131817870
9131823729
9131830504
9131836790
9131841917
9131847655
9131853697
9131860106
9131867247
9131872374
9131878294
9131883055
9131888914
9131895018
9131900816
9131906859
9131912779
9131918516
9131923521
9131929869
9131935789
9131941954
9131948057
9131953611
9131959471
9131963194
9131969542
9131976072
9131983580
9131987669
9131994261
9131999937
9132006407
9132012022
9132018308
9132024961
9132031004
9132036558
9132043333
9132048033
9132054624
9132061704
9132067381
9132074461
9132079588
9132086546
9132090147
9132099241
9132105589
9132111509
9132118467
9132123411
9132130918
9132137083
9132142820
9132149717
9132155515
9132163999
9132168943
9132177366
9132181089
9132189695
9132196958
9132203672
9132210996
9132217588
9132224607
9132228269
9132238218
9132245298
9132250852
9132258420
9132266904
9132273801
9132277341
9132285947
9132294004
9132299497
9132306699
9132312192
9132319699
9132327634
9132332822
9132339536
9132347043
9132352658
9132360227
9132366086
9132373044
9132377622
9132388303
9132393552
9132399411
9132406003
9132412350
9132417416
9132424069
9132429929
9132438657
9132443906
9132450253
9132457333
9132464413
9132473019
9132479123
9132485470
9132491635
9132498349
9132506283
9132511654
9132518918
9132523251
9132531674
9132539425
9132545590
9132551937
9132557187
9132565853
9132571713
9132578183
9132584713
9132592587
9132598446
9132605343
9132611447
9132618893
9132624325
9132631222
9132638851
9132644711
9132651974
9132658932
9132666439
9132671139
9132678158
9132683285
9132690304
9132698055
9132703060
9132712032
9132717525
9132724606
9132729183
9132735836
9132740597
9132747921
9132752926
9132759945
9132768246
9132773739
9132778438
9132784908
9132792537
9132796383
9132804500
9132810787
9132816768
9132823116
9132830867
9132837764
9132845394
9132856807
9132864009
9132869930
9132876400
9132882625
9132888546
9132895320
9132901912
9132909175
9132915218
9132921688
9132927608
9132933040
9132940853
9132946956
9132952022
9132956905
9132962642
9132968318
9132973811
9132980037
9132984676
9132991267
9132996944
9133002437
9133008601
9133013911
9133021053
9133025691
9133031673
9133037105
9133043147
9133048884
9133055598
9133061824
9133067683
9133073115
9133079829
9133083735
9133091487
9133096187
9133102107
9133108149
9133113948
9133119685
9133126277
9133132197
9133138545
9133144282
9133149958
9133156306
9133162349
9133168940
9133174678
9133182612
9133187800
9133195368
9133201106
9133206294
9133212763
9133219416
9133225886
9133231074
9133238337
9133244685
9133250361
9133257319
9133264582
9133270564
9133277766
9133284113
9133289729
9133295466
9133303156
9133307856
9133315546
9133323603
9133329951
9133336359
9133342341
9133349970
9133357050
9133363947
9133370356
9133375788
9133384882
9133393244
9133398798
9133405939
9133413752
9133419611
9133425592
9133432062
9133438532
9133444635
9133452143
9133456110
9133463800
9133470758
9133477106
9133482904
9133488825
9133497431
9133503473
9133510492
9133515558
9133522516
9133527704
9133534784
9133539667
9133547174
9133555170
9133561456
9133567865
9133572870
9133580316
9133587579
9133594232
9133599969
9133606744
9133612726
9133617731
9133625543
9133629755
9133638849
9133644281
9133650384
9133658197
9133663568
9133672113
9133676385
9133685785
9133692132
9133696588
9133704400
9133709405
9133716913
9133723626
9133731622
9133738397
9133744561
9133750421
9133755487
9133763482
9133768304
9133775140
9133782708
9133788995
9133795648
9133800775
9133808099
9133814569
9133820733
9133827569
9133834893
9133842278
9133849175
9133859002
9133863885
9133874261
9133879998
9133885979
9133891412
9133897027
9133903985
9133910210
9133917351
9133922967
9133930779
9133937066
9133943108
9133950371
9133958306
9133964104
9133969597
9133976616
9133983452
9133989129
9133996148
9134002190
9134008782
9134014031
9134021843
9134027581
9134032463
9134040032
9134046624
9134051934
9134058770
9134064507
9134071221
9134077446
9134083123
9134090325
9134095818
9134101372
9134106438
9134113213
9134117668
9134124626
9134130791
9134136528
9134143059
9134149346
9134154411
9134160088
9134165886
9134172478
9134178459
9134184685
9134188408
9134195549
9134199882
9134205315
9134212273
9134217216
9134222832
9134227837
9134233879
9134240471
9134245720
9134251762
9134257683
9134262993
9134267509
9134273674
9134278557
9134285026
9134292351
9134296928
9134303276
9134309257
9134314323
9134320060
9134326713
9134333061
9134339836
9134347221
9134351921
9134359123
9134365104
9134370414
9134377250
9134382926
9134389335
9134392875
9134400444
9134406486
9134413078
9134420036
9134427238
9134434135
9134438651
9134446159
9134454154
9134459770
9134466972
9134472892
9134479850
9134486686
9134492240
9134499320
9134504996
9134512992
9134518912
9134526420
9134532035
9134538016
9134543265
9134549247
9134557914
9134563590
9134569999
9134574882
9134582145
9134587760
9134593924
9134598380
9134607413
9134612723
9134619193
9134625724
9134632865
9134639518
9134647086
9134652823
9134659354
9134665213
9134671866
9134679434
9134685050
9134691397
9134697196
9134704886
9134711234
9134718436
9134724356
9134730216
9134738028
9134744376
9134750235
9134756522
9134762259
9134768973
9134774466
9134779715
9134788443
9134793692
9134800955
9134807181
9134813467
9134819571
9134826651
9134834891
9134838858
9134845755
9134851980
9134858389
9134865652
9134870596
9134878409
9134883841
9134890982
9134896902
9134903311
9134910025
9134915945
9134923574
9134929922
9134936026
9134941030
9134948843
9134955618
9134960073
9134969290
9134974661
9134982046
9134988088
9134993887
9135000234
9135007253
9135014150
9135020864
9135027700
9135032827
9135040212
9135047964
9135054006
9135060903
9135067190
9135073110
9135078054
9135084219
9135089712
9135096304
9135102163
9135108755
9135114065
9135120168
9135125417
9135130910
9135138235
9135146047
9135150320
9135157033
9135163259
9135169851
9135176198
9135182485
9135189748
9135194936
9135202688
9135207387
9135213552
9135217641
9135224721
9135231435
9135237722
9135244313
9135250783
9135256337
9135262258
9135266469
9135273732
9135279164
9135285207
9135290334
9135296559
9135302968
9135309133
9135315175
9135320424
9135325673
9135330617
9135335988
9135341237
9135346242
9135353383
9135359425
9135364003
9135369923
9135375050
9135380605
9135386403
9135392689
9135398305
9135403432
9135408925
9135414052
9135419911
9135425770
9135431996
9135437733
9135444447
9135449269
9135456837
9135461415
9135467885
9135475270
9135480824
9135488087
9135491383
9135499867
9135506337
9135510426
9135518971
9135523854
9135530690
9135537403
9135543202
9135549000
9135556446
9135562367
9135568653
9135575306
9135582081
9135587879
9135595265
9135600575
9135609120
9135614124
9135622059
9135628834
9135634693
9135641529
9135645924
9135654163
9135659718
9135666248
9135673573
9135678822
9135685963
9135692860
9135699940
9135705433
9135711964
9135718128
9135724171
9135731556
9135737842
9135745716
9135752125
9135757984
9135763599
9135769459
9135776111
9135782886
9135788685
9135797352
9135802478
9135807361
9135814624
9135820789
9135827381
9135835437
9135841968
9135847950
9135854541
9135860279
9135865284
9135872425
9135879505
9135885364
9135892871
9135899280
9135907154
9135913501
9135919299
9135926257
9135932544
9135938709
9135943591
9135951465
9135955737
9135962512
9135969287
9135975757
9135982715
9135989185
9135995288
9136000110
9136006580
9136013538
9136020434
9136028064
9136034228
9136041003
9136048205
9136054187
9136061511
9136066333
9136074267
9136079455
9136085498
9136090503
9136098742
9136105517
9136111621
9136118640
9136124377
9136131091
9136138537
9136145495
9136153186
9136158252
9136166674
9136172473
9136180712
9136187243
9136194018
9136198413
9136206042
9136212939
9136218615
9136224963
9136231188
9136236559
9136242602
9136250781
9136256884
9136262927
9136268786
9136274584
9136281420
9136286425
9136292956
9136298205
9136304613
9136309862
9136316271
9136321581
9136329027
9136336352
9136341479
9136347094
9136352831
9136359118
9136365160
9136371325
9136377672
9136383715
9136390062
9136395617
9136401049
9136406908
9136412645
9136418932
9136426073
9136430895
9136437731
9136443285
9136449511
9136454393
9136461718
9136467516
9136472704
9136478136
9136483751
9136490099
9136496080
9136502428
9136507555
9136514025
9136520555
9136526293
9136532457
9136536302
9136543565
9136548570
9136555711
9136561205
9136566332
9136572130
9136576280
9136583543
9136588792
9136594774
9136601549
9136605638
9136613389
9136618272
9136627061
9136630968
9136637926
9136643175
9136649766
9136655504
9136661729
9136671007
9136677354
9136682847
9136690416
9136695054
9136702806
9136707933
9136715440
9136721238
9136727403
9136733628
9136738572
9136745347
9136751268
9136757798
9136763902
9136771104
9136777085
9136782884
9136789109
9136793687
9136802049
9136807298
9136813706
9136818711
9136825425
9136830430
9136837327
9136841660
9136849900
9136856553
9136862412
9136868821
9136873826
9136885606
9136891099
9136897996
9136905930
9136911607
9136917649
9136924119
9136931199
9136937668
9136944382
9136950242
9136957383
9136964402
9136970688
9136976182
9136981553
9136990098
9136996506
9137003281
9137009324
9137016282
9137021958
9137027451
9137036057
9137040024
9137047409
9137054245
9137060532
9137067124
9137075058
9137082749
9137088242
9137096176
9137102402
9137108261
9137113632
9137119553
9137126145
9137132736
9137139755
9137145371
9137151840
9137158432
9137164413
9137172165
9137178207
9137185471
9137190597
9137196457
9137203598
9137208786
9137215195
9137222580
9137230087
9137236618
9137242904
9137248337
9137256882
9137264694
9137271957
9137278000
9137283737
9137291855
9137298874
9137303878
9137312606
9137318405
9137324936
9137331283
9137337204
9137343063
9137349716
9137357223
9137364059
9137369918
9137375045
9137380966
9137387863
9137393783
9137399948
9137405624
9137412155
9137416976
9137424301
9137429550
9137435165
9137442184
9137447616
9137453658
9137459640
9137466842
9137472274
9137477706
9137486434
9137492232
9137498397
9137504256
9137510360
9137516891
9137521224
9137530013
9137534652
9137540755
9137546920
9137552596
9137558883
9137563704
9137569014
9137576949
9137583236
9137588912
9137593734
9137598922
9137604781
9137609481
9137616256
9137620406
9137628890
9137634078
9137639876
9137644820
9137649703
9137657515
9137662642
9137667769
9137674300
9137678572
9137685408
9137690840
9137696150
9137702193
9137707503
9137712691
9137717757
9137723921
9137730879
9137737410
9137743086
9137749007
9137755782
9137760786
9137767256
9137774580
9137781111
9137786055
9137792647
9137798750
9137804549
9137811079
9137817915
9137822432
9137828840
9137833662
9137840925
9137847639
9137851668
9137860701
9137865584
9137871565
9137878340
9137883772
9137890303
9137897688
9137903120
9137910322
9137916914
9137923201
9137929304
9137935163
9137941877
9137948652
9137955793
9137961714
9137967329
9137973249
9137979231
9137985517
9137993025
9137998213
9138005232
9138010847
9138017805
9138023725
9138030073
9138037824
9138042768
9138050153
9138056135
9138062482
9138066022
9138073957
9138081586
9138086896
9138095136
9138100385
9138106489
9138111372
9138119550
9138126508
9138133100
9138139753
9138146833
9138153364
9138158491
9138166669
9138175031
9138182050
9138188215
9138194928
9138201398
9138209394
9138213849
9138221723
9138226972
9138234601
9138241071
9138246991
9138254865
9138260236
9138267377
9138273541
9138281476
9138286237
9138293561
9138299237
9138305585
9138312543
9138319745
9138325360
9138330670
9138337872
9138342938
9138350690
9138358563
9138365338
9138372540
9138379498
9138385968
9138391827
9138399213
9138406110
9138411053
9138419476
9138423749
9138431866
9138439313
9138446942
9138454083
9138460125
9138468182
9138474286
9138481366
9138489117
9138493695
9138500775
9138507245
9138513226
9138518292
9138525006
9138531781
9138536114
9138544293
9138549053
9138556256
9138562969
9138568707
9138573223
9138579876
9138587322
9138593975
9138600628
9138606304
9138612652
9138616863
9138623760
9138631085
9138637493
9138643536
9138650250
9138655987
9138662212
9138667828
9138673992
9138680401
9138685833
9138692303
9138698650
9138704327
9138709637
9138715191
9138721905
9138728985
9138735637
9138740215
9138747600
9138754497
9138761272
9138766704
9138771770
9138777996
9138782818
9138787029
9138793560
9138800457
9138806560
9138812236
9138816448
9138821880
9138826885
9138834575
9138841472
9138846904
9138853130
9138858867
9138864238
9138871623
9138876934
9138884502
9138890300
9138896221
9138903301
9138908489
9138915813
9138921550
9138926677
9138932719
9138938640
9138944621
9138950786
9138959880
9138967509
9138973918
9138979777
9138985881
9138991496
9138998515
9139004985
9139010539
9139015300
9139022990
9139029765
9139033916
9139040568
9139045695
9139053264
9139060161
9139066081
9139072429
9139078776
9139085612
9139090312
9139097941
9139105143
9139111308
9139117167
9139123088
9139130717
9139136332
9139143656
9139149272
9139157572
9139163676
9139168193
9139175395
9139182597
9139188517
9139196269
9139202677
9139209574
9139214213
9139222025
9139226786
9139233866
9139240946
9139246623
9139252787
9139258707
9139265116
9139271281
9139279093
9139286417
9139291666
9139296793
9139304423
9139310099
9139315897
9139319803
9139327311
9139333475
9139339579
9139345499
9139351359
9139358256
9139366129
9139372538
9139378519
9139385477
9139391825
9139398233
9139404703
9139412760
9139418863
9139424051
9139431681
9139437845
9139444315
9139452738
9139460672
9139467752
9139474344
9139480753
9139486795
9139492838
9139499002
9139505533
9139512979
9139518350
9139525369
9139530740
9139536173
9139543314
9139548441
9139554788
9139561380
9139568033
9139575052
9139580972
9139588541
9139595193
9139602090
9139608377
9139614480
9139620706
9139626199
9139633768
9139640481
9139647745
9139653543
9139660745
9139665933
9139672220
9139677408
9139684366
9139692361
9139698404
9139703714
9139710061
9139716470
9139721658
9139727761
9139732156
9139740518
9139745401
9139751321
9139758462
9139762795
9139770608
9139777383
9139783181
9139789163
9139794778
9139801248
9139807229
9139813394
9139821084
9139829202
9139836160
9139842812
9139847756
9139852334
9139860696
9139868508
9139875161
9139882058
9139888589
9139893716
9139899087
9139904946
9139911782
9139917885
9139923134
9139927529
9139933571
9139938637
9139945595
9139951577
9139955788
9139962075
9139966652
9139973244
9139978798
9139984475
9139991677
9139998452
9140003823
9140008400
9140016335
9140022072
9140028542
9140034584
9140040627
9140046303
9140051552
9140057595
9140064186
9140068459
9140076454
9140082070
9140087502
9140093666
9140098427
9140104775
9140112343
9140118569
9140124245
9140129372
9140137734
9140142921
9140152626
9140159157
9140164223
9140171364
9140178139
9140182716
9140189674
9140195290
9140201698
9140209633
9140214577
9140221779
9140228370
9140235206
9140241981
9140248390
9140255226
9140260292
9140267799
9140272926
9140280494
9140287574
9140293556
9140301490
9140306678
9140313636
9140319374
9140326210
9140332374
9140338966
9140346595
9140351600
9140358436
9140363746
9140369789
9140375221
9140382423
9140389869
9140396095
9140402320
9140407264
9140415077
9140420448
9140428016
9140433997
9140439735
9140445899
9140451881
9140456336
9140463294
9140472144
9140476966
9140484168
9140489722
9140497901
9140502296
9140509498
9140521461
9140526649
9140533851
9140540442
9140546973
9140554786
9140559791
9140568641
9140574500
9140582618
9140586951
9140594519
9140600196
9140606177
9140613440
9140620215
9140625708
9140630896
9140638221
9140643653
9140651404
9140655493
9140663611
9140669654
9140676123
9140683936
9140689551
9140695654
9140704016
9140709876
9140717627
9140722693
9140729590
9140734473
9140741675
9140748572
9140754492
9140761633
9140766638
9140775000
9140778967
9140787329
9140795203
9140802832
9140809057
9140815588
9140821509
9140826391
9140832861
9140839880
9140845984
9140851965
9140857214
9140864843
9140870703
9140878149
9140884253
9140891699
9140897314
9140903784
9140910131
9140915258
9140922338
9140928564
9140933752
9140940832
9140946752
9140952490
9140957983
9140964514
9140970983
9140977209
9140982824
9140988745
9140993749
9141001074
9141006445
9141011511
9141018041
9141024572
9141030126
9141036047
9141042272
9141048986
9141054723
9141059789
9141066503
9141072912
9141078893
9141086584
9141093175
9141099584
9141105504
9141111425
9141118017
9141123327
9141130407
9141137304
9141142797
9141148229
9141154332
9141159826
9141165624
9141170873
9141179906
9141184606
9141191014
9141196080
9141201879
9141207372
9141212804
9141219396
9141225316
9141230626
9141237096
9141241796
9141246556
9141252782
9141259984
9141266637
9141271581
9141277379
9141283299
9141287938
9141295690
9141301671
9141306981
9141313695
9141319554
9141325414
9141329991
9141337010
9141345372
9141349950
9141356297
9141361302
9141368504
9141374364
9141380223
9141388829
9141395299
9141402074
9141407078
9141414403
9141419774
9141426915
9141434239
9141439305
9141445530
9141452000
9141457188
9141463536
9141469334
9141475254
9141482701
9141488926
9141495091
9141502354
9141508335
9141514134
9141518833
9141527317
9141533299
9141540623
9141546604
9141553196
9141556980
9141564244
9141572544
9141577305
9141583592
9141591099
9141597508
9141602574
9141608189
9141613926
9141621311
9141628269
9141636143
9141643467
9141648899
9141656712
9141664585
9141670566
9141678684
9141684177
9141691746
9141699131
9141703892
9141713108
9141720005
9141724705
9141730930
9141736362
9141741428
9141748691
9141755039
9141761814
9141768345
9141774387
9141781955
9141786899
9141793918
9141798984
9141807651
9141814792
9141821079
9141827915
9141833042
9141840244
9141846836
9141852756
9141860813
9141867832
9141874057
9141880344
9141888767
9141893283
9141902072
9141909274
9141914523
9141922092
9141927097
9141934848
9141942599
9141948398
9141953952
9141962497
9141969638
9141976352
9141982883
9141990268
9141998630
9142004306
9142010409
9142016208
9142022799
9142026706
9142038669
9142045993
9142053195
9142058139
9142064303
9142069918
9142074801
9142081698
9142088656
9142093539
9142101779
9142107150
9142113803
9142118991
9142125521
9142132846
9142139498
9142145236
9142150118
9142157199
9142162814
9142168612
9142175082
9142180697
9142187899
9142192904
9142199496
9142205477
9142212435
9142220431
9142227023
9142232882
9142238558
9142243441
9142250277
9142256991
9142263277
9142268709
9142274020
9142279818
9142286288
9142290987
9142297030
9142302828
9142308871
9142315157
9142320589
9142325594
9142330965
9142337740
9142342562
9142348665
9142355257
9142360506
9142366060
9142372469
9142378634
9142383822
9142391390
9142396883
9142402315
9142407198
9142411531
9142419954
9142425142
9142432039
9142437410
9142443209
9142449251
9142454805
9142461763
9142467500
9142474031
9142478670
9142485872
9142492830
9142496980
9142505098
9142509615
9142516206
9142522798
9142528108
9142534456
9142539217
9142546419
9142552278
9142560335
9142565950
9142572359
9142579500
9142586458
9142593477
9142600374
9142606172
9142613374
9142619172
9142624421
9142630891
9142638398
9142643403
9142650605
9142657747
9142663667
9142669465
9142675813
9142682832
9142687898
9142695161
9142701081
9142708161
9142713227
9142721101
9142727143
9142734468
9142739228
9142746308
9142753816
9142758515
9142766023
9142771699
9142779267
9142785737
9142792268
9142798005
9142803803
9142809724
9142816071
9142823640
9142830964
9142836884
9142843598
9142849763
9142855134
9142861665
9142867280
9142875214
9142881562
9142888581
9142894868
9142899994
9142907929
9142915314
9142922028
9142928559
9142933625
9142939789
9142944916
9142952546
9142959076
9142965485
9142971833
9142976410
9142983918
9142988800
9142996796
9143004731
9143012116
9143018280
9143024750
9143029389
9143037506
9143044586
9143049469
9143058563
9143065827
9143071869
9143078827
9143083893
9143091217
9143098480
9143102814
9143111664
9143116180
9143124237
9143131561
9143138519
9143144501
9143151825
9143159576
9143166901
9143173370
9143177093
9143185760
9143190094
9143197723
9143204986
9143210419
9143216583
9143222381
9143228790
9143233551
9143240936
9143248016
9143253875
9143260711
9143266815
9143272979
9143277313
9143284820
9143289764
9143297821
9143303497
9143308868
9143314361
9143320953
9143324554
9143331878
9143339324
9143346160
9143352081
9143356841
9143365081
9143371490
9143378082
9143384796
9143390838
9143398284
9143402984
9143410125
9143413604
9143420440
9143427154
9143432525
9143438628
9143445037
9143450103
9143455596
9143461761
9143467559
9143473662
9143478789
9143484954
9143490508
9143496367
9143501006
9143507110
9143513152
9143518157
9143523101
9143528777
9143535064
9143542449
9143547210
9143552703
9143558074
9143564177
9143568328
9143575469
9143580169
9143587310
9143592803
9143598418
9143604766
9143610381
9143616301
9143623259
9143629058
9143636260
9143642119
9143645354
9143652556
9143659270
9143665801
9143670989
9143678435
9143683684
9143690215
9143695464
9143700163
9143706267
9143714995
9143720793
9143727080
9143733794
9143739958
9143745879
9143751860
9143758940
9143764433
9143772063
9143778227
9143784819
9143790556
9143795561
9143803740
9143809721
9143815397
9143822294
9143828642
9143833708
9143840971
9143847868
9143854399
9143861479
9143867399
9143873747
9143878569
9143885832
9143891447
9143900419
9143904325
9143912809
9143919096
9143925505
9143931730
9143940214
9143947416
9143951933
9143958769
9143964384
9143970243
9143976835
9143983732
9143989835
9143995573
9144004545
9144010221
9144017606
9144024015
9144030058
9144038297
9144043424
9144050626
9144057218
9144063138
9144069913
9144075040
9144083768
9144089689
9144095975
9144103483
9144108915
9144114652
9144121244
9144128690
9144133207
9144141996
9144147001
9144154508
9144158658
9144165921
9144174405
9144181119
9144187589
9144193936
9144199613
9144205533
9144211698
9144218656
9144225675
9144232999
9144239224
9144244718
9144249784
9144257413
9144263761
9144269864
9144276944
9144283109
9144288846
9144293729
9144301175
9144308011
9144315152
9144322354
9144328641
9144334561
9144340909
9144346585
9144353482
9144360989
9144366605
9144373379
9144380765
9144385770
9144391873
9144398160
9144406094
9144410672
9144417203
9144422513
9144431119
9144437161
9144444546
9144451748
9144457303
9144463711
9144470547
9144477871
9144485257
9144491116
9144498501
9144502224
9144509426
9144516262
9144522488
9144528286
9144534939
9144542752
9144549038
9144553921
9144558926
9144565273
9144571560
9144576016
9144583828
9144588650
9144596096
9144601650
9144607204
9144613308
9144617886
9144624905
9144630032
9144635403
9144641872
9144647304
9144652126
9144657314
9144664394
9144670315
9144675808
9144681240
9144686977
9144694057
9144700100
9144704067
9144714077
9144719936
9144725734
9144731228
9144736538
9144743740
9144750026
9144755458
9144761257
9144767299
9144772548
9144779506
9144786159
9144792079
9144797695
9144803127
9144808376
9144814662
9144820583
9144827297
9144832790
9144838649
9144845241
9144849636
9144856044
9144861476
9144867824
9144873805
9144879482
9144886257
9144893520
9144897365
9144905116
9144912563
9144918910
9144926295
9144931911
9144939174
9144946620
9144951076
9144960475
9144966090
9144972926
9144979518
9144986415
9144990993
9144998317
9145007777
9145014308
9145021510
9145026820
9145035060
9145039454
9145047694
9145054896
9145061427
9145068080
9145073085
9145079921
9145083827
9145090968
9145099696
9145104701
9145111781
9145118128
9145125209
9145130946
9145137965
9145146082
9145152674
9145158595
9145163783
9145170313
9145177882
9145184046
9145190943
9145197230
9145203761
9145209010
9145216334
9145222437
9145229090
9145236658
9145243006
9145250635
9145254237
9145263209
9145268214
9145274134
9145283533
9145288538
9145296351
9145302881
9145308680
9145314356
9145320521
9145328394
9145333826
9145340296
9145345240
9145351770
9145357569
9145365870
9145373560
9145380030
9145387781
9145394556
9145400171
9145406519
9145412683
9145419092
9145426599
9145432154
9145439356
9145446375
9145453089
9145458338
9145465723
9145473413
9145480249
9145487512
9145493799
9145500330
9145506677
9145512109
9145520349
9145527551
9145534936
9145541284
9145546289
9145553308
9145558862
9145565332
9145571435
9145577966
9145585473
9145590906
9145598352
9145602136
9145610132
9145616784
9145623315
9145628808
9145634179
9145641259
9145644494
9145651513
9145660180
9145665063
9145671960
9145676416
9145683618
9145688317
9145693566
9145699426
9145706811
9145712854
9145719140
9145724511
9145729638
9145735925
9145742028
9145747949
9145753930
9145759423
9145764611
9145770226
9145776696
9145781823
9145788110
9145794091
9145800011
9145805871
9145811608
9145817345
9145822594
9145829430
9145834985
9145840722
9145846825
9145851281
9145857751
9145862511
9145870568
9145875634
9145881310
9145887597
9145892541
9145898522
9145904870
9145912011
9145917016
9145922631
9145928917
9145934044
9145940209
9145946801
9145952904
9145958825
9145963890
9145969933
9145974572
9145981713
9145988060
9145994103
9146001244
9146006920
9146012474
9146017967
9146023400
9146029381
9146035546
9146041466
9146046898
9146054527
9146061363
9146066979
9146075340
9146081505
9146089439
9146094811
9146102562
9146109459
9146115685
9146124290
9146129845
9146137779
9146143822
9146150291
9146156273
9146162498
9146169334
9146175560
9146182518
9146188927
9146194176
9146200462
9146206321
9146211876
9146220421
9146224815
9146232200
9146239708
9146245811
9146251793
9146257896
9146265586
9146270897
9146278099
9146283348
9146290489
9146295616
9146303672
9146310997
9146317100
9146323997
9146329185
9146336875
9146343833
9146349693
9146358604
9146363487
9146371482
9146376975
9146382530
9146389610
9146395164
9146402000
9146408836
9146415427
9146421836
9146427879
9146433067
9146440574
9146447410
9146454246
9146460776
9146467124
9146473533
9146478477
9146485312
9146491233
9146498618
9146505881
9146512351
9146519004
9146523703
9146532859
9146538962
9146546775
9146553122
9146560813
9146565024
9146573203
9146579673
9146586875
9146595420
9146601462
9146609336
9146616172
9146622580
9146630271
9146636313
9146643942
9146651267
9146657492
9146665366
9146671408
9146677390
9146684531
9146691428
9146700217
9146706808
9146713034
9146718832
9146725119
9146732138
9146739401
9146744955
9146752951
9146757651
9146765585
9146771628
9146777426
9146784933
9146789938
9146796469
9146802450
9146807638
9146812399
9146819540
9146826620
9146832968
9146838095
9146844137
9146850607
9146856649
9146862692
9146868490
9146875692
9146882284
9146888388
9146894430
9146900045
9146906088
9146910910
9146918173
9146923239
9146930075
9146935385
9146941183
9146948080
9146954183
9146959371
9146965658
9146971395
9146977865
9146982137
9146988790
9146996542
9147002218
9147008627
9147014669
9147019857
9147024740
9147032064
9147039266
9147044881
9147051046
9147055440
9147062459
9147068136
9147074056
9147080282
9147086324
9147092428
9147098165
9147103292
9147109762
9147114705
9147121419
9147126546
9147133565
9147139364
9147145528
9147152364
9147157247
9147165670
9147169210
9147175801
9147182332
9147188558
9147195333
9147200521
9147208211
9147214742
9147221456
9147227620
9147232747
9147241597
9147247701
9147254659
9147261922
9147268147
9147274312
9147282369
9147289571
9147296529
9147302083
9147308553
9147315144
9147321126
9147327290
9147333333
9147340413
9147345357
9147353230
9147358906
9147366536
9147373982
9147379963
9147387532
9147392659
9147400105
9147406148
9147412251
9147418293
9147425251
9147433674
9147438557
