9155356689
9155362426
9155367248
9155372863
9155378295
9155384338
9155389464
9155394775
9155400207
9155404357
9155416930
9155423095
9155429015
9155434691
9155440795
9155445983
9155452697
9155458617
9155464538
9155471618
9155478026
9155486022
9155491637
9155498656
9155505919
9155512572
9155520201
9155524840
9155532592
9155541320
9155547728
9155556639
9155563719
9155569396
9155577208
9155584715
9155591490
9155599425
9155606810
9155613402
9155619383
9155626158
9155633788
9155640135
9155649046
9155656126
9155661864
9155670348
9155678465
9155684752
9155692625
9155698057
9155706724
9155710448
9155719298
9155728026
9155736632
9155743223
9155751158
9155756590
9155765196
9155774168
9155784788
9155791624
9155801756
9155807127
9155816832
9155826780
9155836973
9155843504
9155850828
9155858579
9155867246
9155872984
9155882993
9155890562
9155897825
9155906675
9155915037
9155925535
9155934446
9155941953
9155949827
9155958067
9155965391
9155972654
9155980588
9155988157
9155996335
9156004331
9156012632
9156018308
9156026365
9156034788
9156043882
9156051023
9156058286
9156065305
9156074216
9156081418
9156089109
9156097226
9156105466
9156110776
9156121213
9156126767
9156136289
9156144773
9156151609
9156158750
9156166135
9156174130
9156182248
9156190793
9156198056
9156205441
9156213620
9156220334
9156226376
9156236874
9156244748
9156252377
9156259579
9156266049
9156274594
9156281735
9156290585
9156301327
9156307980
9156316159
9156324460
9156331051
9156340634
9156347897
9156353940
9156362179
9156369565
9156376645
9156385556
9156392453
9156401669
9156409726
9156417355
9156425778
9156435238
9156446957
9156458370
9156466488
9156475277
9156485653
9156492977
9156502621
9156508968
9156518856
9156526730
9156532284
9156538509
9156547176
9156553402
9156562130
9156570187
9156577999
9156585567
9156592953
9156600155
9156607540
9156613888
9156621395
9156629146
9156636654
9156643917
9156651546
9156659542
9156665096
9156674251
9156679989
9156688717
9156696102
9156703426
9156711116
9156717830
9156725887
9156732845
9156740779
9156748897
9156755184
9156764339
9156771236
9156779048
9156783504
9156792537
9156802425
9156809871
9156818172
9156823604
9156831355
9156838557
9156846431
9156851802
9156861262
9156869685
9156877315
9156882930
9156891780
9156897395
9156906550
9156912837
9156922236
9156930903
9156939082
9156945247
9156954463
9156960627
9156968867
9156977534
9156986445
9156992976
9157001521
9157008296
9157017634
9157024470
9157032160
9157038935
9157049494
9157057551
9157065486
9157073115
9157080683
9157089350
9157097224
9157106684
9157114558
9157120600
9157130000
9157137812
9157145380
9157153376
9157162287
9157168757
9157178400
9157192072
9157199946
9157207941
9157216120
9157224177
9157232660
9157239557
9157247248
9157254267
9157260309
9157267878
9157275934
9157282038
9157289301
9157296503
9157304377
9157311762
9157318903
9157326349
9157334162
9157341791
9157349298
9157356745
9157363825
9157370966
9157377924
9157385309
9157394342
9157401422
9157409723
9157416681
9157424249
9157431512
9157439264
9157443231
9157452753
9157461847
9157469415
9157476739
9157483942
9157491998
9157499933
9157509088
9157513299
9157525262
9157531427
9157540521
9157547906
9157552972
9157562738
9157568658
9157577020
9157584954
9157591790
9157598443
9157605218
9157612847
9157620660
9157629998
9157636895
9157644403
9157650872
9157657769
9157666253
9157674554
9157682488
9157691338
9157699151
9157704949
9157711114
9157718499
9157724053
9157730340
9157737359
9157743768
9157749932
9157755242
9157763665
9157769646
9157775445
9157781182
9157787469
9157794488
9157799065
9157806939
9157812737
9157820122
9157825615
9157834405
9157840569
9157847344
9157853936
9157860100
9157867424
9157871270
9157879876
9157886406
9157893059
9157900017
9157905327
9157913872
9157920708
9157927056
9157933708
9157938957
9157946648
9157950249
9157958306
9157965508
9157971794
9157978142
9157983147
9157991753
9157998467
9158004631
9158011040
9158018059
9158024834
9158030693
9158040642
9158046501
9158054436
9158059624
9158069145
9158077019
9158082207
9158090568
9158097832
9158104729
9158111564
9158118339
9158123588
9158130974
9158137932
9158145134
9158152458
9158160209
9158166069
9158173210
9158180717
9158187675
9158192985
9158200431
9158207634
9158215324
9158223320
9158230461
9158235893
9158242851
9158248222
9158257011
9158264884
9158270561
9158278007
9158284660
9158290519
9158298881
9158306144
9158317069
9158322257
9158331413
9158336600
9158346366
9158350883
9158360221
9158365104
9158378226
9158385001
9158393058
9158400565
9158408195
9158414725
9158422599
9158431266
9158439811
9158446647
9158454276
9158461722
9158467704
9158476004
9158482291
9158487906
9158499625
9158507804
9158515799
9158522147
9158529166
9158537589
9158542594
9158551261
9158557242
9158564078
9158568595
9158576895
9158585257
9158590262
9158597647
9158603690
9158609549
9158616202
9158620840
9158627432
9158632681
9158641043
9158646536
9158652029
9158659598
9158664419
9158672720
9158676260
9158685721
9158691458
9158695791
9158702444
9158707083
9158714834
9158719595
9158728567
9158734488
9158740042
9158746206
9158752066
9158756887
9158762991
9158769094
9158774527
9158780752
9158785940
9158791067
9158797171
9158801504
9158807974
9158813589
9158820486
9158825918
9158831533
9158836477
9158841604
9158848379
9158855032
9158860220
9158866079
9158872000
9158877920
9158882192
9158888967
9158894766
9158900137
9158907034
9158911794
9158917593
9158922170
9158930959
9158937246
9158943838
9158949148
9158953786
9158959524
9158966726
9158972341
9158978689
9158984365
9158990285
9158996023
9159001027
9159008047
9159013845
9159017629
9159026845
9159034108
9159038808
9159047536
9159055288
9159062062
9159069082
9159074453
9159081594
9159088308
9159094472
9159101674
9159108022
9159115773
9159119435
9159128652
9159134511
9159141469
9159147878
9159155690
9159161427
9159167409
9159173696
9159180104
9159186696
9159194081
9159199025
9159206715
9159213002
9159220204
9159227101
9159232228
9159242116
9159246815
9159255116
9159261342
9159267201
9159272450
9159279164
9159286427
9159291371
9159298817
9159304799
9159312611
9159319142
9159324757
9159332814
9159338734
9159346241
9159352101
9159358265
9159364064
9159369069
9159376637
9159382313
9159389515
9159395985
9159403065
9159409352
9159415760
9159424122
9159430165
9159435963
9159443653
9159448170
9159455311
9159462025
9159469837
9159475025
9159482533
9159488819
9159494618
9159501514
9159507923
9159514210
9159521717
9159527760
9159533436
9159540211
9159546436
9159552906
9159559437
9159565967
9159572498
9159580189
9159585071
9159592396
9159598865
9159607044
9159614429
9159620899
9159627552
9159634205
9159639576
9159646351
9159656116
9159659961
9159668872
9159674854
9159680530
9159687610
9159691761
9159699207
9159705493
9159711048
9159717456
9159723255
9159727222
9159736255
9159741931
9159748401
9159754444
9159759387
9159766773
9159772937
9159778552
9159783435
9159790210
9159797168
9159802356
9159808948
9159813647
9159820483
9159827136
9159833057
9159839770
9159845752
9159851306
9159857593
9159863147
9159868030
9159877490
9159882373
9159888171
9159894336
9159899280
9159904284
9159910144
9159915820
9159921252
9159927478
9159934192
9159939441
9159944445
9159950061
9159956225
9159961413
9159968371
9159973864
9159979785
9159985461
9159991198
9159996203
9160002551
9160008105
9160013293
9160018237
9160024951
9160031481
9160037524
9160043810
9160049487
9160055102
9160059558
9160065234
9160069872
9160078295
9160083727
9160088854
9160094775
9160100512
9160105883
9160111620
9160119616
9160125964
9160131457
9160138110
9160144091
9160150072
9160154589
9160162463
9160168261
9160174670
9160181139
9160186815
9160193773
9160198351
9160208727
9160218737
9160226488
9160231737
9160238817
9160245531
9160252428
9160258959
9160265490
9160271776
9160279100
9160282701
9160291491
9160297838
9160304491
9160310350
9160316637
9160322740
9160327501
9160333727
9160338976
9160346971
9160354234
9160360216
9160366136
9160372850
9160379015
9160383653
9160390855
9160397813
9160403978
9160410326
9160416673
9160424486
9160430040
9160438646
9160445604
9160451463
9160457201
9160462999
9160469041
9160475877
9160483079
9160488328
9160495958
9160499559
9160507493
9160511155
9160518846
9160527513
9160532457
9160540452
9160547166
9160553087
9160558885
9160565843
9160572679
9160578660
9160585191
9160592454
9160598130
9160605027
9160611253
9160616929
9160623582
9160629746
9160636216
9160642015
9160646897
9160653794
9160659959
9160667893
9160673936
9160679795
9160684983
9160690965
9160698045
9160704758
9160711167
9160716843
9160724107
9160730881
9160737046
9160743394
9160750046
9160757615
9160764573
9160772202
9160778306
9160784226
9160791062
9160797654
9160806565
9160813157
9160819626
9160827256
9160831162
9160839585
9160845139
9160851609
9160857651
9160863022
9160870407
9160875412
9160880783
9160888047
9160894944
9160902390
9160908371
9160915940
9160921005
9160928635
9160935837
9160942734
9160948410
9160954697
9160961167
9160968002
9160974167
9160981369
9160987228
9160993454
9160999374
9161005112
9161011337
9161016159
9161023178
9161029709
9161036362
9161041183
9161047653
9161054184
9161057663
9161066757
9161072555
9161077926
9161083725
9161088547
9161095016
9161101852
9161107406
9161112472
9161116684
9161122909
9161127548
9161135482
9161140487
9161148117
9161152816
9161158188
9161163009
9161167709
9161175338
9161179245
9161185531
9161191391
9161196945
9161202133
9161207504
9161212753
9161218124
9161224349
9161229171
9161234298
9161239852
9161246383
9161253341
9161256576
9161266280
9161272323
9161277816
9161284652
9161291915
9161297714
9161305038
9161310958
9161316756
9161324691
9161330367
9161337569
9161342391
9161350265
9161356978
9161362411
9161369552
9161374740
9161383407
9161386825
9161395858
9161402083
9161408004
9161414351
9161421126
9161428206
9161434798
9161440963
9161447493
9161454390
9161460128
9161465987
9161475386
9161480147
9161487227
9161494124
9161500533
9161507552
9161512862
9161519576
9161524886
9161534285
9161540816
9161545760
9161552779
9161558211
9161566084
9161569624
9161578841
9161585860
9161592390
9161599593
9161604842
9161611372
9161618391
9161624556
9161630904
9161637801
9161644881
9161651106
9161657576
9161664595
9161670943
9161676985
9161683577
9161690535
9161697004
9161703840
9161710249
9161716780
9161723005
9161729658
9161735151
9161742231
9161748152
9161751631
9161760969
9161767744
9161773787
9161779646
9161785566
9161792463
9161797529
9161806318
9161814253
9161820722
9161827802
9161834577
9161840742
9161846662
9161855451
9161862470
9161868635
9161876814
9161882246
9161888776
9161896284
9161902692
9161909345
9161913923
9161920576
9161927473
9161933393
9161938520
9161947065
9161953962
9161959882
9161966352
9161972394
9161979169
9161984723
9161992231
9161998151
9162004743
9162010175
9162016950
9162023542
9162029584
9162037519
9162042218
9162049054
9162055890
9162061811
9162067975
9162072370
9162079511
9162086225
9162091657
9162096784
9162103925
9162109723
9162115338
9162122052
9162127545
9162134748
9162139508
9162146405
9162152570
9162158978
9162166974
9162173322
9162178815
9162183759
9162191510
9162195416
9162203656
9162208722
9162215070
9162221722
9162226117
9162233014
9162236127
9162243695
9162250836
9162255475
9162262433
9162266217
9162274701
9162279217
9162284344
9162290570
9162296551
9162302838
9162308514
9162314251
9162318707
9162324383
9162330182
9162336285
9162342144
9162348431
9162353192
9162360821
9162367962
9162374127
9162380963
9162386212
9162393048
9162399273
9162404888
9162410259
9162417828
9162423138
9162427960
9162434979
9162438214
9162446819
9162452679
9162459149
9162465557
9162470928
9162478191
9162484295
9162488689
9162494671
9162500958
9162507305
9162513103
9162519390
9162525738
9162532574
9162540325
9162545940
9162553326
9162559368
9162565777
9162572185
9162578716
9162587383
9162592998
9162600078
9162605816
9162612102
9162618816
9162625408
9162631450
9162638652
9162645488
9162651470
9162657451
9162664104
9162669109
9162678325
9162684307
9162690166
9162696086
9162701763
9162707439
9162712383
9162721233
9162726604
9162732952
9162740032
9162746318
9162751689
9162756633
9162764690
9162771159
9162777141
9162780559
9162788310
9162794780
9162800456
9162808330
9162813213
9162819987
9162826823
9162833964
9162839519
9162845805
9162853801
9162860515
9162866313
9162874370
9162879252
9162887187
9162892131
9162899882
9162905742
9162912455
9162920817
9162926921
9162934672
9162938578
9162948344
9162955912
9162962748
9162970317
9162976786
9162982585
9162989848
9162996928
9163001933
9163008219
9163015238
9163021159
9163027751
9163031474
9163041483
9163047099
9163052958
9163060648
9163065897
9163072855
9163078959
9163086527
9163092448
9163098612
9163105387
9163111124
9163119730
9163125529
9163131510
9163138956
9163143717
9163151469
9163157084
9163162699
9163169230
9163175699
9163182413
9163187906
9163195658
9163199076
9163207071
9163213602
9163219889
9163225504
9163230509
9163237528
9163240885
9163247904
9163254374
9163260782
9163267374
9163273661
9163280313
9163285074
9163291605
9163296732
9163304544
9163311380
9163317484
9163323587
9163327921
9163334207
9163340433
9163346597
9163352091
9163358865
9163364114
9163369791
9163375650
9163381570
9163388773
9163393106
9163400858
9163405557
9163412576
9163418008
9163423502
9163431558
9163436258
9163441934
9163447732
9163453348
9163459146
9163463724
9163472879
9163478677
9163484720
9163490945
9163496744
9163502847
9163507486
9163515420
9163521463
9163526346
9163533609
9163536782
9163544046
9163551248
9163556680
9163562967
9163567544
9163574807
9163580667
9163586038
9163592568
9163598550
9163605325
9163610024
9163615701
9163620217
9163627297
9163634683
9163640725
9163647927
9163652444
9163658608
9163663674
9163670144
9163676980
9163683083
9163690163
9163695168
9163702615
9163707619
9163714455
9163722329
9163728493
9163734719
9163741555
9163747903
9163752968
9163759865
9163765359
9163774331
9163779580
9163785439
9163793374
9163797829
9163805153
9163811623
9163818154
9163824929
9163830788
9163836953
9163842812
9163847451
9163853981
9163861245
9163868203
9163875038
9163881630
9163887551
9163895790
9163900734
9163909340
9163913124
9163921852
9163927712
9163933571
9163940590
9163946938
9163953774
9163960243
9163966042
9163971962
9163977882
9163984352
9163990700
9163996315
9164003029
9164011391
9164017250
9164025062
9164028786
9164036720
9164044899
9164051918
9164057960
9164065590
9164072120
9164075844
9164083656
9164091713
9164098182
9164105018
9164110939
9164117408
9164123695
9164130653
9164137367
9164143837
9164150184
9164155311
9164162452
9164167884
9164175087
9164181739
9164188026
9164194313
9164200355
9164207374
9164212318
9164219398
9164225685
9164231727
9164239112
9164245643
9164251197
9164256141
9164263648
9164267310
9164277320
9164283485
9164288184
9164295142
9164299842
9164306373
9164311622
9164319862
9164325965
9164331580
9164337745
9164343299
9164348182
9164354346
9164362647
9164368323
9164373878
9164380591
9164386146
9164393531
9164398292
9164406409
9164410193
9164417395
9164423865
9164429602
9164435889
9164441871
9164447730
9164453406
9164459876
9164465369
9164471656
9164477393
9164482886
9164489722
9164495703
9164501990
9164507361
9164514319
9164519568
9164525061
9164531836
9164537451
9164542761
9164548804
9164553381
9164561804
9164568396
9164574561
9164579871
9164584631
9164592444
9164598181
9164604773
9164612158
9164617895
9164622839
9164627844
9164633459
9164638586
9164644751
9164653052
9164656897
9164663977
9164669531
9164674719
9164681006
9164685095
9164692541
9164696936
9164704992
9164711645
9164717505
9164723303
9164727942
9164735266
9164741980
9164747717
9164754736
9164760351
9164765783
9164772680
9164778112
9164784582
9164790808
9164797155
9164802831
9164808019
9164814428
9164820104
9164826879
9164832128
9164839330
9164845434
9164852026
9164860021
9164867101
9164874303
9164881078
9164887060
9164893163
9164899694
9164905920
9164913305
9164919225
9164926488
9164932409
9164938390
9164944921
9164951696
9164957250
9164964025
9164970678
9164976720
9164982763
9164989721
9164997228
9165004125
9165009984
9165016759
9165023107
9165028844
9165034764
9165042150
9165048925
9165055944
9165063085
9165069554
9165075109
9165079442
9165086522
9165092931
9165100743
9165106603
9165114720
9165118443
9165126195
9165133824
9165139867
9165146947
9165154271
9165160863
9165164342
9165171605
9165179051
9165185216
9165192418
9165197179
9165204259
9165209203
9165216283
9165221776
9165229954
9165236668
9165242772
9165249608
9165256261
9165262669
9165267735
9165276646
9165282994
9165288792
9165295506
9165299962
9165307652
9165313450
9165321568
9165327549
9165334019
9165340062
9165346348
9165352330
9165357396
9165365574
9165369480
9165378636
9165384129
9165390538
9165397679
9165402622
9165410252
9165416660
9165423069
9165429600
9165435703
9165441685
9165447239
9165454624
9165459873
9165467442
9165473057
9165478855
9165486485
9165491611
9165499790
9165506077
9165511814
9165517734
9165523838
9165532017
9165535496
9165545139
9165551121
9165557285
9165562961
9165567783
9165575474
9165582309
9165586765
9165594639
9165599277
9165607212
9165613193
9165619053
9165625522
9165631626
9165637363
9165643283
9165649082
9165653781
9165661838
9165666538
9165674106
9165679721
9165685153
9165690647
9165700168
9165706943
9165713657
9165720371
9165726230
9165731601
9165737521
9165743259
9165748691
9165754184
9165761874
9165768283
9165773227
9165780124
9165784396
9165789584
9165795932
9165802890
9165807956
9165813510
9165819430
9165826022
9165829074
9165838290
9165848971
9165854709
9165859653
9165865146
9165870639
9165878573
9165884921
9165890780
9165896945
9165902804
9165908908
9165915133
9165921420
9165927279
9165933322
9165939669
9165943026
9165952121
9165958834
9165964755
9165970919
9165976474
9165982821
9165989840
9165996005
9166003512
9166010104
9166016146
9166019564
9166026766
9166032626
9166038424
9166044772
9166051791
9166057711
9166063265
9166070406
9166077425
9166083041
9166088351
9166094210
9166101717
9166106661
9166115206
9166120943
9166127352
9166134371
9166139925
9166146334
9166153658
9166159517
9166165621
9166172152
9166179354
9166184786
9166193514
9166200350
9166206698
9166212191
9166218538
9166226839
9166231173
9166240389
9166249056
9166255342
9166260103
9166266329
9166274446
9166280001
9166286898
9166293489
9166299349
9166305879
9166312288
9166319978
9166325899
9166332247
9166338411
9166344820
9166350313
9166355684
9166363985
9166371126
9166376985
9166384126
9166389375
9166396394
9166402315
9166408052
9166414827
9166420564
9166427827
9166432710
9166439424
9166444917
9166452485
9166460237
9166466401
9166473237
9166478364
9166485872
9166490815
9166498628
9166506318
9166512727
9166518892
9166525300
9166531465
9166537751
9166544404
9166551789
9166559358
9166565522
9166572297
9166578401
9166587251
9166594697
9166600984
9166606599
9166612763
9166619111
9166625153
9166630341
9166635590
9166644257
9166649506
9166654939
9166660737
9166666596
9166671723
9166677399
9166685273
9166689912
9166696687
9166703217
9166708771
9166715913
9166720734
9166726899
9166732819
9166739228
9166746735
9166751679
9166758942
9166767304
9166773469
9166779389
9166785737
9166792572
9166797944
9166803925
9166809479
9166815583
9166821808
9166827790
9166833405
9166838959
9166844635
9166849762
9166857025
9166862519
9166867890
9166873566
9166878815
9166884247
9166888275
9166896698
9166902069
9166907257
9166912323
9166917389
9166922272
9166927277
9166933441
9166939301
9166945221
9166951386
9166956879
9166963593
9166967011
9166976349
9166981598
9166987030
9166994110
9166997101
9167003876
9167007111
9167016937
9167022125
9167027862
9167033844
9167039764
9167045074
9167051910
9167057892
9167062103
9167069244
9167074981
9167080291
9167085846
9167091949
9167099151
9167102935
9167110138
9167114105
9167121002
9167128753
9167135650
9167142364
9167147918
9167155914
9167161712
9167167510
9167174652
9167179168
9167187713
9167192901
9167200347
9167207427
9167213226
9167220306
9167225555
9167233550
9167240691
9167247039
9167252715
9167258697
9167265472
9167272124
9167277984
9167283233
9167292327
9167298736
9167305450
9167311431
9167316985
9167324920
9167332061
9167338836
9167345794
9167352141
9167359099
9167366301
9167372832
9167380462
9167385894
9167392974
9167399321
9167405730
9167412322
9167419097
9167426848
9167432830
9167439299
9167445708
9167452788
9167459258
9167464263
9167472014
9167479949
9167485991
9167492217
9167497405
9167504546
9167510283
9167519011
9167525176
9167531462
9167538542
9167542998
9167549956
9167554900
9167563811
9167570830
9167577177
9167583647
9167588713
9167597075
9167605254
9167612212
9167618559
9167624113
9167631804
9167637114
9167645659
9167652922
9167658659
9167665678
9167670866
9167678373
9167684172
9167694059
9167700468
9167705595
9167714079
9167719023
9167725859
9167730864
9167738920
9167746855
9167752775
9167758573
9167765287
9167771147
9167775053
9167784452
9167790067
9167796171
9167801786
9167808439
9167813261
9167818205
9167826078
9167831938
9167837431
9167843656
9167848417
9167856779
9167864286
9167873197
9167879972
9167886137
9167891996
9167898160
9167904813
9167909513
9167917509
9167922208
9167929532
9167936368
9167940824
9167947111
9167954374
9167962125
9167966703
9167973539
9167979886
9167984708
9167991849
9167997831
9168003507
9168009000
9168014859
9168020414
9168024686
9168031034
9168037137
9168042630
9168048429
9168054471
9168059720
9168063932
9168070401
9168076016
9168082791
9168088101
9168093411
9168099881
9168105618
9168110806
9168115506
9168123197
9168129239
9168134671
9168140897
9168145413
9168151395
9168156216
9168164761
9168170193
9168176602
9168182828
9168187894
9168194485
9168202054
9168208218
9168213772
9168218289
9168225857
9168232571
9168237942
9168243191
9168251004
9168256375
9168261380
9168267544
9168274197
9168279934
9168286160
9168292202
9168298733
9168305264
9168310818
9168317227
9168323697
9168329190
9168336026
9168342373
9168348538
9168356106
9168361660
9168368618
9168374111
9168383084
9168390408
9168395657
9168402615
9168408962
9168415371
9168422512
9168430752
9168435085
9168442471
9168449001
9168455410
9168461636
9168468594
9168476711
9168480617
9168488857
9168495510
9168501797
9168508633
9168513698
9168520656
9168526272
9168533291
9168539944
9168546291
9168552273
9168558742
9168565090
9168570339
9168578151
9168584011
9168590114
9168597011
9168602260
9168610500
9168617519
9168624599
9168630458
9168636074
9168643093
9168648098
9168658107
9168663112
9168668971
9168676601
9168683193
9168690212
9168695522
9168704799
9168711330
9168718044
9168724696
9168730739
9168737392
9168740871
9168749538
9168756252
9168762904
9168769008
9168774013
9168781581
9168787685
9168794582
9168801845
9168808925
9168814784
9168821864
9168828090
9168834559
9168840541
9168847377
9168854457
9168860316
9168868312
9168874476
9168879847
9168890345
9168896632
9168904872
9168909449
9168918605
9168925990
9168931666
9168938197
9168945521
9168951014
9168957789
9168962123
9168969020
9168974085
9168981898
9168988612
9168994898
9169001978
9169006556
9169013758
9169018580
9169026576
9169030604
9169037867
9169044459
9169050867
9169055628
9169062159
9169069422
9169073328
9169080408
9169087183
9169092921
9169099695
9169104395
9169113062
9169119288
9169124720
9169129847
9169135096
9169140650
9169146570
9169152247
9169157068
9169164271
9169170008
9169175806
9169182825
9169186426
9169193689
9169199793
9169205103
9169211695
9169215845
9169223108
9169229700
9169235376
9169241236
9169246790
9169251917
9169258631
9169263208
9169267969
9169276514
9169282678
9169288477
9169292871
9169298181
9169304712
9169310999
9169318201
9169323511
9169329797
9169335413
9169340540
9169349023
9169355554
9169361292
9169366907
9169372705
9169379419
9169385034
9169390283
9169397363
9169403100
9169409143
9169414331
9169421411
9169426233
9169432092
9169439233
9169446802
9169452783
9169460046
9169464746
9169472131
9169477563
9169486840
9169493982
9169500940
9169507837
9169514795
9169521264
9169526452
9169534509
9169542321
9169548425
9169554406
9169561120
9169566857
9169573205
9169580285
9169587365
9169593469
9169600976
9169606591
9169614098
9169620568
9169627648
9169633569
9169639611
9169645226
9169651330
9169658227
9169663110
9169672387
9169679223
9169685448
9169691918
9169696435
9169703759
9169708825
9169717431
9169724450
9169730370
9169736596
9169743126
9169749413
9169753930
9169762047
9169768395
9169774254
9169780968
9169786705
9169792565
9169798790
9169806237
9169812523
9169819664
9169823265
9169832726
9169838768
9169845299
9169853234
9169858971
9169865380
9169872399
9169879051
9169884972
9169890038
9169899742
9169906639
9169913109
9169920860
9169927696
9169934166
9169939964
9169949120
9169953880
9169962425
9169966759
9169975243
9169979942
9169987877
9169994102
9170000328
9170007347
9170013939
9170018761
9170025719
9170032127
9170039268
9170048851
9170053673
9170061607
9170068016
9170076622
9170082969
9170089378
9170096702
9170103111
9170109397
9170115867
9170121543
9170126426
9170135215
9170141990
9170147850
9170154563
9170159629
9170166099
9170170982
9170178245
9170185020
9170190696
9170197288
9170203208
9170212669
9170218589
9170225059
9170232749
9170238853
9170245383
9170248924
9170257713
9170263755
9170269920
9170276145
9170280784
9170287620
9170294089
9170299522
9170306052
9170310569
9170317527
9170323691
9170328757
9170335776
9170340537
9170346152
9170350974
9170359336
9170365439
9170371543
9170376914
9170381736
9170387961
9170393271
9170400290
9170405783
9170411582
9170417075
9170421530
9170428733
9170434592
9170439658
9170445700
9170450766
9170457419
9170464072
9170469443
9170475730
9170481101
9170487937
9170492697
9170498068
9170504233
9170508872
9170516013
9170522543
9170528281
9170534689
9170539023
9170546286
9170550681
9170558798
9170564963
9170570883
9170577475
9170582602
9170589316
9170595053
9170602865
9170609457
9170616476
9170622946
9170628622
9170636435
9170644369
9170651083
9170658774
9170663962
9170671042
9170676840
9170685385
9170691427
9170697714
9170703756
9170708822
9170716940
9170723226
9170729269
9170736166
9170742391
9170748861
9170755453
9170761618
9170766073
9170772360
9170779012
9170787374
9170795370
9170801290
9170806173
9170812521
9170819845
9170824789
9170833028
9170838583
9170844625
9170849569
9170856405
9170862630
9170868429
9170874960
9170881002
9170888509
9170893636
9170901021
9170906087
9170912862
9170917867
9170926473
9170933004
9170938863
9170946309
9170951314
9170959432
9170964742
9170972554
9170976522
9170985494
9170991597
9170996175
9171003682
9171008565
9171017171
9171021077
9171028829
9171035848
9171040731
9171047505
9171054769
9171061238
9171067586
9171074788
9171082051
9171087911
9171094869
9171101338
9171109456
9171117757
9171124593
9171130879
9171137959
9171144612
9171151387
9171157674
9171163960
9171170613
9171177083
9171183613
9171191731
9171195576
9171206074
9171213887
9171221211
9171229939
9171236531
9171241841
9171249470
9171256794
9171262227
9171268513
9171273457
9171280720
9171287617
9171293843
9171301167
9171305867
9171313008
9171319416
9171325703
9171331684
9171338154
9171345661
9171352375
9171358357
9171364582
9171368916
9171375385
9171381611
9171388386
9171394673
9171400227
9171405659
9171411152
9171416523
9171423115
9171431171
9171436543
9171442951
9171449726
9171455341
9171462482
9171467121
9171474567
9171480488
9171486042
9171491718
9171497455
9171503498
9171509601
9171515095
9171520832
9171526203
9171532001
9171536640
9171543964
9171546955
9171555011
9171561481
9171566730
9171573810
9171579059
9171584919
9171590656
9171595356
9171602802
9171608478
9171614276
9171619709
9171626239
9171633991
9171638751
9171644733
9171651874
9171656513
9171663288
9171669269
9171675311
9171681659
9171687030
9171692340
9171697955
9171704364
9171709552
9171717426
9171724567
9171730914
9171739337
9171747394
9171753680
9171761859
9171766742
9171775043
9171781634
9171788531
9171795428
9171800677
9171810382
9171816424
9171822772
9171829730
9171834613
9171841144
9171847674
9171854632
9171862201
9171868487
9171874591
9171879657
9171886981
9171890399
9171901019
9171906878
9171913836
9171920001
9171925067
9171933551
9171940631
9171946917
9171954241
9171960528
9171966937
9171972003
9171980425
9171986224
9171992266
9171999529
9172005084
9172012225
9172017230
9172025164
9172032916
9172039385
9172045306
9172052874
9172058550
9172065081
9172071246
9172078936
9172085467
9172092181
9172097613
9172105364
9172111162
9172117144
9172120684
9172131975
9172136919
9172142779
9172149798
9172154375
9172161882
9172166948
9172174944
9172179644
9172187273
9172193193
9172199236
9172204729
9172211077
9172218218
9172224565
9172231645
9172236772
9172243914
9172251299
9172258135
9172263994
9172273515
9172278642
9172287615
9172292131
9172300005
9172306780
9172313310
9172320879
9172328447
9172336565
9172344316
9172351335
9172357317
9172365800
9172373430
9172380998
9172386980
9172393388
9172401262
9172406694
9172415056
9172420854
9172428361
9172433000
9172440629
9172446061
9172452165
9172458635
9172464311
9172472856
9172478227
9172483964
9172490373
9172496232
9172502580
9172509965
9172516618
9172522660
9172528398
9172533769
9172540116
9172546525
9172552690
9172559220
9172564286
9172570573
9172576005
9172582169
9172588639
9172594376
9172600297
9172606156
9172612626
9172617448
9172625321
9172631120
9172637406
9172644303
9172649186
9172654801
9172660905
9172666337
9172671525
9172675919
9172683793
9172688370
9172694657
9172699784
9172704239
9172711503
9172715775
9172722245
9172727372
9172733780
9172739274
9172744462
9172750687
9172756302
9172764115
9172770035
9172775162
9172781876
9172787980
9172794449
9172800675
9172806473
9172811966
9172817765
9172823380
9172827591
9172834000
9172839920
9172846634
9172854813
9172859390
9172867386
9172873551
9172879837
9172885758
9172892655
9172899185
9172905045
9172911026
9172917252
9172922684
9172930130
9172934769
9172941299
9172945816
9172954788
9172961197
9172967544
9172976028
9172983658
9172992996
9172999039
9173003616
9173011123
9173013992
9173022781
9173029495
9173035904
9173040664
9173047378
9173053299
9173058487
9173066421
9173073013
9173078811
9173085159
9173091262
9173097488
9173103775
9173110916
9173116104
9173123184
9173129226
9173135086
9173143142
9173148086
9173157180
9173164749
9173170547
9173177017
9173183486
9173189529
9173194473
9173201919
9173208022
9173213882
9173221938
9173228225
9173235854
9173239333
9173248367
9173254470
9173260512
9173267654
9173272903
9173279861
9173284804
9173292983
9173299209
9173305007
9173310927
9173316787
9173321547
9173327651
9173336562
9173341933
9173349135
9173355239
9173361342
9173365004
9173374282
9173381057
9173387526
9173393691
9173400038
9173406691
9173411818
9173419326
9173425368
9173434584
9173441359
9173446913
9173454299
9173460097
9173467177
9173474623
9173481703
9173489821
9173495253
9173502089
9173508376
9173518202
9173526198
9173531081
9173539076
9173544081
9173551039
9173556532
9173564345
9173570814
9173577833
9173584425
9173590529
9173595778
9173601698
9173607802
9173612562
9173621962
9173626722
9173633619
9173638929
9173646010
9173651320
9173657240
9173666029
9173670240
9173678968
9173683912
9173690077
9173695570
9173701185
9173708265
9173713087
9173720594
9173725904
9173731764
9173738966
9173743727
9173752455
9173755995
9173763929
9173770643
9173776502
9173783277
9173788038
9173795728
9173801832
9173807935
9173814222
9173817640
9173825391
9173831373
9173836988
9173843092
9173849134
9173855176
9173860548
9173867017
9173871534
9173878858
9173883802
9173888135
9173896558
9173901807
9173907483
9173913770
9173919263
9173924268
9173930555
9173936109
9173941175
9173945508
9173954419
9173960706
9173966138
9173972181
9173976819
9173985913
9173992200
9173998487
9174005201
9174009839
9174018567
9174023755
9174030774
9174037488
9174043530
9174049207
9174055005
9174061719
9174067700
9174072583
9174082166
9174087842
9174093945
9174099500
9174104627
9174112378
9174118970
9174125745
9174132458
9174139233
9174145947
9174149609
9174157056
9174160535
9174171399
9174177502
9174184033
9174189282
9174195813
9174201855
9174206799
9174215222
9174221814
9174227673
9174232312
9174238476
9174245434
9174250805
9174259472
9174265454
9174271984
9174276989
9174283947
9174291272
9174297924
9174304821
9174309826
9174316784
9174323498
9174329541
9174337658
9174342602
9174350353
9174357372
9174362255
9174368359
9174374584
9174381420
9174388317
9174396252
9174401928
9174409802
9174415661
9174422070
9174427685
9174434826
9174440807
9174446300
9174453747
9174460094
9174466198
9174470348
9174477611
9174486156
9174492809
9174500316
9174506908
9174513561
9174520458
9174527111
9174532116
9174539440
9174546520
9174554332
9174561474
9174568370
9174574474
9174583263
9174590709
9174596691
9174602733
9174609264
9174617076
9174624950
9174631175
9174638561
9174643749
9174650768
9174656749
9174663707
9174672008
9174678356
9174685314
9174688976
9174698375
9174704601
9174711864
9174719188
9174725475
9174734325
9174738902
9174745738
9174752391
9174759349
9174765697
9174771983
9174778026
9174782908
9174789500
9174795177
9174801524
9174805430
9174813853
9174820079
9174825694
9174832042
9174838084
9174844432
9174848765
9174856700
9174861399
9174869883
9174875865
9174882334
9174888560
9174893626
9174901072
9174907420
9174912974
9174919932
9174924754
9174931712
9174937815
9174944468
9174950694
9174956553
9174963084
9174967967
9174974741
9174980540
9174985728
9174992808
9174997080
9175004649
9175009898
9175015330
9175021250
9175026926
9175032725
9175038706
9175044321
9175049021
9175056040
9175062510
9175069224
9175075571
9175080515
9175087046
9175093271
9175099192
9175108286
9175112253
9175120676
9175126230
9175132151
9175137522
9175143747
9175150339
9175155527
9175161509
9175179331
9175185862
9175192820
9175199167
9175204538
9175211191
9175215891
9175223093
9175226267
9175234995
9175241770
9175246469
9175252878
9175257456
9175265207
9175272104
9175278574
9175284799
9175291574
9175297495
9175302377
9175309702
9175315256
9175322946
9175328622
9175334482
9175341135
9175346933
9175352487
9175357431
9175365304
9175370248
9175377756
9175384164
9175390207
9175397104
9175403757
9175410470
9175415597
9175424142
9175430856
9175435251
9175441720
9175448068
9175455758
9175462777
9175468759
9175472299
9175479745
9175485360
9175491037
9175498361
9175504708
9175510751
9175518746
9175524423
9175530709
9175536569
9175544442
9175549447
9175556649
9175563485
9175569589
9175574899
9175581612
9175588693
9175594979
9175601327
9175608041
9175613839
9175619942
9175624337
9175630868
9175638375
9175645150
9175651986
9175658578
9175666207
9175670968
9175678963
9175687203
9175693184
9175697518
9175705147
9175710824
9175716744
9175725716
9175731759
9175737679
9175741646
9175749581
9175757210
9175763985
9175769295
9175776070
9175784493
9175788460
9175797615
9175804329
9175811104
9175817330
9175824166
9175831185
9175836678
9175844551
9175848458
9175858223
9175863716
9175870796
9175878670
9175883980
9175892586
9175898140
9175904488
9175911507
9175919685
9175926094
9175931892
9175937447
9175942940
9175948555
9175954353
9175960640
9175965462
9175972969
9175978645
9175984993
9175991157
9175996956
9176002815
9176007820
9176015144
9176021187
9176026741
9176032478
9176036750
9176044258
9176050911
9176057014
9176063240
9176068733
9176073371
9176079414
9176085945
9176092781
9176098945
9176103584
9176109687
9176116706
9176122505
9176129096
9176135017
9176140632
9176145149
9176151252
9176156684
9176162361
9176168952
9176175727
9176180732
9176185127
9176191901
9176199043
9176205390
9176212104
9176218696
9176225043
9176231208
9176236701
9176242927
9176248908
9176254584
9176260871
9176266852
9176271918
9176276191
9176282050
9176287421
9176294257
9176300544
9176306342
9176312690
9176317450
9176324408
9176330634
9176336615
9176344245
9176349433
9176355414
9176359992
9176367377
9176370429
9176380988
9176386420
9176390998
9176398932
9176402533
9176410651
9176416938
9176423102
9176429022
9176435370
9176442877
9176448920
9176454779
9176459601
9176467352
9176473639
9176479987
9176484686
9176490668
9176496893
9176503668
9176511847
9176518134
9176524176
9176529974
9176535895
9176541937
9176548224
9176554449
9176559454
9176568426
9176574774
9176581732
9176588629
9176596258
9176603583
9176610418
9176616339
9176623480
9176628546
9176636847
9176641974
9176649786
9176656256
9176662115
9176668646
9176675116
9176682013
9176686468
9176695013
9176702215
9176713140
9176719549
9176725591
9176731939
9176738897
9176745672
9176753851
9176760320
9176767217
9176773199
9176781194
9176788274
9176794744
9176802618
9176809087
9176815923
9176821050
9176828619
9176832098
9176842351
9176847967
9176854986
9176860906
9176866033
9176874517
9176881048
9176886724
9176893316
9176899663
9176905706
9176912298
9176917852
9176925298
9176931524
9176938665
9176945195
9176951543
9176957341
9176962712
9176969060
9176976018
9176983281
9176990056
9176995000
9177002324
9177008916
9177014897
9177021855
9177028996
9177034612
9177040959
9177049626
9177055608
9177061894
9177069035
9177075200
9177083562
9177088261
9177094914
9177100774
9177107426
9177113164
9177118840
9177124944
9177131291
9177137151
9177142461
9177149846
9177156377
9177162602
9177170170
9177175297
9177182500
9177186284
9177195317
9177200688
9177206608
9177213627
9177220158
9177225712
9177230961
9177238896
9177242680
9177251408
9177257695
9177264042
9177269841
9177274784
9177281193
9177286808
9177294071
9177300541
9177305058
9177310978
9177318363
9177323124
9177330082
9177335392
9177342961
9177348515
9177354252
9177360966
9177365421
9177372624
9177378544
9177383793
9177390751
9177395206
9177401554
9177407963
9177413395
9177419559
9177425175
9177432011
9177437809
9177443851
9177450626
9177454899
9177461796
9177467228
9177472538
9177479130
9177484989
9177491520
9177496952
9177502323
9177510013
9177514164
9177520939
9177525699
9177532840
9177538700
9177545414
9177551090
9177557132
9177563114
9177567874
9177575626
9177582218
9177588016
9177595340
9177600223
9177606937
9177611881
9177621036
9177625186
9177633243
9177640384
9177645084
9177652103
9177658573
9177664676
9177671756
9177678226
9177684879
9177689334
9177697879
9177703006
9177710574
9177717471
9177723270
9177729617
9177736453
9177743106
9177748721
9177757754
9177764590
9177769595
9177776675
9177782779
9177789920
9177797915
9177804385
9177810733
9177817080
9177824893
9177830813
9177837100
9177844607
9177850711
9177858889
9177864260
9177870364
9177877627
9177885867
9177892886
9177899478
9177905337
9177912600
9177919680
9177924624
9177931399
9177935061
9177945071
9177951113
9177957522
9177963686
9177970034
9177976382
9177981387
9177988528
9177994936
9178000735
9178006716
9178012698
9178018618
9178025515
9178032656
9178038210
9178045473
9178053164
9178059511
9178067019
9178074099
9178080630
9178086794
9178094851
9178099306
9178108339
9178112246
9178124147
9178131777
9178138979
9178145815
9178150698
9178157839
9178164980
9178170839
9178178530
9178185793
9178191957
9178198061
9178204042
9178210939
9178216860
9178223390
9178231996
9178238161
9178243410
9178249880
9178256166
9178263124
9178268373
9178276430
9178280458
9178287538
9178293398
9178298952
9178304933
9178310487
9178317201
9178322206
9178329896
9178336488
9178340761
9178346681
9178353212
9178360292
9178366029
9178372316
9178378358
9178383912
9178390382
9178396425
9178403383
9178407594
9178415590
9178421693
9178427430
9178432252
9178437989
9178447511
9178453309
9178459291
9178464784
9178470704
9178478028
9178482606
9178490602
9178496400
9178501527
9178507142
9178512635
9178517945
9178523499
9178530641
9178537049
9178542359
9178548097
9178553224
9178558167
9178564149
9178570313
9178576112
9178581605
9178586854
9178593201
9178598328
9178603638
9178609864
9178616029
9178621094
9178627076
9178630921
9178636414
9178642274
9178649232
9178654114
9178661744
9178667054
9178672547
9178677796
9178683594
9178690796
9178695801
9178703553
9178709168
9178715088
9178720582
9178725342
9178732605
9178739136
9178744629
9178750916
9178755982
9178763001
9178768006
9178777222
9178782959
9178788941
9178794617
9178800843
9178807495
9178812622
9178821411
9178828552
9178834595
9178841553
9178846863
9178853760
9178860046
9178866455
9178874023
9178880249
9178886658
9178892517
9178900879
9178905884
9178915588
9178921814
9178927917
9178933533
9178940063
9178946350
9178952881
9178959472
9178965637
9178973633
9178980041
9178986572
9178994385
9179000305
9179007324
9179014038
9179021972
9179028015
9179033996
9179041076
9179046020
9179054016
9179058410
9179066894
9179073242
9179079650
9179086975
9179091430
9179099975
9179105163
9179111999
9179118591
9179124755
9179129699
9179137084
9179144531
9179151611
9179157531
9179162414
9179169677
9179176269
9179182494
9179188659
9179195007
9179201659
9179205321
9179212829
9179218505
9179225280
9179231750
9179240600
9179247191
9179252013
9179259704
9179264525
9179271667
9179276977
9179285338
9179290832
9179299743
9179303771
9179312072
9179320922
9179326354
9179335936
9179343200
9179349852
9179356627
9179362059
9179369628
9179377745
9179385314
9179391417
9179398986
9179405028
9179412474
9179418028
9179424620
9179432067
9179435790
9179443602
9179448302
9179454466
9179461119
9179466795
9179474181
9179478941
9179486266
9179489806
9179498473
9179505247
9179510558
9179517943
9179525267
9179530943
9179536986
9179542845
9179550291
9179556883
9179564696
9179571409
9179578245
9179584654
9179590391
9179596739
9179603636
9179608763
9179614317
9179619810
9179625731
9179631529
9179636412
9179642454
9179648924
9179654051
9179660093
9179664915
9179670042
9179675291
9179681578
9179684507
9179692442
9179698118
9179702268
9179707884
9179713743
9179719541
9179724851
9179730406
9179734983
9179739988
9179745176
9179748777
9179757261
9179763853
9179767698
9179773374
9179778196
9179782957
9179789182
9179794798
9179800901
9179805967
9179812070
9179817319
9179823484
9179827329
9179834043
9179840635
9179846555
9179852537
9179856260
9179862485
9179866758
9179874387
9179880430
9179886228
9179892576
9179896360
9179903379
9179906369
9179916562
9179923154
9179928830
9179934507
9179941770
9179948423
9179953427
9179962094
9179966489
9179974546
9179980771
9179986753
9179991574
9179997434
9180004941
9180012021
9180017819
9180022763
9180028684
9180035581
9180041562
9180047971
9180054379
9180058530
9180067563
9180073850
9180080380
9180086545
9180092160
9180100400
9180107053
9180113522
9180117429
9180125729
9180133176
9180137692
9180146237
9180151364
9180160153
9180166012
9180171994
9180178525
9180184933
9180191830
9180198666
9180205441
9180211056
9180216977
9180222897
9180229611
9180236142
9180242367
9180249569
9180256771
9180263485
9180269528
9180275875
9180283871
9180289791
9180301205
9180308224
9180314877
9180320370
9180326412
9180334103
9180341366
9180347469
9180353817
9180359310
9180366695
9180373043
9180381161
9180386471
9180392757
9180399960
9180406734
9180412899
9180420284
9180427303
9180434444
9180441036
9180447323
9180456783
9180462887
9180469845
9180477535
9180484981
9180492244
9180498287
9180507015
9180513179
9180520992
9180528255
9180535274
9180543392
9180550655
9180556697
9180561885
9180568965
9180577388
9180583370
9180590755
9180597591
9180603633
9180608638
9180615352
9180619380
9180628902
9180636470
9180642513
9180648616
9180653499
9180660762
9180667415
9180673396
9180681331
9180687740
9180694637
9180701472
9180707210
9180713435
9180719478
9180726009
9180730098
9180739436
9180746272
9180752742
9180759212
9180764400
9180771358
9180777522
9180782954
9180788203
9180792659
9180801265
9180807307
9180812800
9180818782
9180822688
9180828181
9180834163
9180841059
9180847651
9180852656
9180858271
9180863826
9180868952
9180874446
9180882197
9180888484
9180893977
9180898799
9180903926
9180909968
9180916010
9180922480
9180928217
9180933222
9180938166
9180943598
9180949458
9180956294
9180963557
9180968623
9180974238
9180980891
9180986628
9180991389
9180995905
9181004023
9181010493
9181016535
9181022517
9181029719
9181035883
9181043085
9181049128
9181054926
9181059931
9181066645
9181073542
9181079645
9181087153
9181093622
9181098749
9181106440
9181112970
9181120050
9181126154
9181132868
9181139338
9181145136
9181151178
9181157526
9181163568
9181169672
9181176325
9181182550
9181188837
9181194086
9181203119
9181209650
9181216425
9181222955
9181230768
9181236688
9181242792
9181248651
9181256159
9181261652
9181270013
9181276239
9181282220
9181288263
9181294305
9181301691
9181306634
9181313470
9181319513
9181326959
9181333490
9181339776
9181344781
9181350946
9181358148
9181364313
9181370477
9181376886
9181383416
9181388849
9181395074
9181401361
9181408624
9181414911
9181421136
9181426934
9181432794
9181438470
9181444207
9181451593
9181458490
9181464898
9181470147
9181477044
9181482965
9181488763
9181496575
9181503045
9181509881
9181515496
9181523248
9181530511
9181537225
9181543511
9181550530
9181556878
9181562432
9181570306
9181575555
9181583733
9181588921
9181598138
9181604729
9181611382
9181618523
9181625359
9181632012
9181637810
9181646721
9181653618
9181660454
9181667229
9181672051
9181679009
9181686760
9181695061
9181701897
9181711052
9181718560
9181725945
9181732903
9181737603
9181743035
9181752739
9181757988
9181764397
9181770745
9181776787
9181782341
9181788140
9181795952
9181803154
9181809258
9181816521
9181822197
9181830193
9181836296
9181843071
9181849541
9181855217
9181861504
9181865776
9181872490
9181877129
9181885674
9181891350
9181896782
9181901726
9181908562
9181914665
9181920097
9181926445
9181932487
9181940300
9181946159
9181952141
9181958427
9181964042
9181970878
9181975578
9181983513
9181989067
9181994133
9182003166
9182010551
9182019828
9182025627
9182030143
9182036735
9182041191
9182049186
9182054740
9182060417
9182066337
9182070549
9182076774
9182080314
9182088310
9182092826
9182100517
9182106254
9182110893
9182117362
9182122184
9182127433
9182133415
9182140312
9182146293
9182150565
9182157645
9182161735
9182168388
9182174308
9182180961
9182187980
9182194083
9182200431
9182206046
9182211906
9182218741
9182224357
9182231254
9182236014
9182242362
9182247123
9182253470
9182260184
9182266837
9182273307
9182279593
9182285575
9182290885
9182298697
9182303641
9182311454
9182317801
9182324393
9182330985
9182337394
9182344596
9182351554
9182358023
9182363272
9182373099
9182378653
9182385001
9182392142
9182397147
9182406424
9182413504
9182419425
9182427420
9182432425
9182440054
9182443472
9182453421
9182459219
9182465323
9182472403
9182477530
9182484976
9182488699
9182498404
9182504935
9182509451
9182516470
9182522818
9182528372
9182533804
9182542166
9182549002
9182554861
9182562369
9182569876
9182575369
9182580557
9182588980
9182595999
9182601492
9182608694
9182614981
9182623037
9182629446
9182635855
9182642691
9182647207
9182654592
9182659475
9182665640
9182670462
9182679678
9182685476
9182692068
9182699575
9182706472
9182713247
9182717031
9182725698
9182732961
9182737539
9182745413
9182750417
9182757742
9182762807
9182771108
9182778127
9182785085
9182791006
9182797353
9182803640
9182808767
9182818227
9182824697
9182830800
9182837270
9182843618
9182849782
9182857778
9182864187
9182870473
9182879567
9182887807
9182893239
9182900502
9182907094
9182915700
9182922353
9182928029
9182934316
9182940541
9182946523
9182953420
9182960073
9182964894
9182971852
9182978078
9182983754
9182990895
9182995839
9183003285
9183009328
9183015309
9183022206
9183026723
9183033315
9183038197
9183048512
9183052907
9183060963
9183068654
9183075673
9183082814
9183089589
9183095753
9183102284
9183107411
9183114064
9183119557
9183125600
9183131642
9183136708
9183143300
9183148060
9183154774
9183159962
9183165761
9183171742
9183177052
9183183705
9183189564
9183194813
9183200306
9183205800
9183214161
9183220448
9183225880
9183231007
9183235096
9183241078
9183246937
9183254383
9183259877
9183265003
9183271839
9183277272
9183282643
9183289356
9183294972
9183300526
9183304737
9183310780
9183318409
9183323902
9183330372
9183336598
9183343250
9183347828
9183354481
9183359791
9183365833
9183373219
9183377796
9183386463
9183391834
9183397816
9183402820
9183409290
9183417103
9183424183
9183430530
9183437488
9183443531
9183452320
9183457996
9183464222
9183473072
9183478260
9183485706
9183490223
9183498279
9183506092
9183512378
9183519153
9183525440
9183531543
9183537097
9183542957
9183550830
9183556140
9183562732
9183568286
9183575489
9183581409
9183587329
9183596424
9183604053
9183609180
9183614673
9183621875
9183629443
9183635486
9183643420
9183648792
9183656360
9183663013
9183668994
9183674365
9183680347
9183687732
9183695056
9183701526
9183705188
9183714343
9183719531
9183726245
9183734118
9183739429
9183747119
9183756701
9183763415
9183769885
9183775134
9183783374
9183787219
9183796252
9183801928
9183808032
9183814685
9183820971
9183829150
9183835253
9183840991
9183848132
9183854052
9183859667
9183866015
9183872851
9183879199
9183885851
9183890978
9183899035
9183904894
9183911364
9183919726
9183925341
9183931567
9183938891
9183944445
9183952380
9183957995
9183969958
9183973925
9183983263
9183990649
9183996813
9184003527
9184008959
9184018358
9184026232
9184033800
9184040636
9184045824
9184055163
9184059008
9184069140
9184073839
9184084826
9184091845
9184098314
9184106005
9184112108
9184119127
9184125780
9184132433
9184138658
9184142137
9184150072
9184156481
9184162340
9184170030
9184174791
9184182054
9184188341
9184197557
9184204881
9184209947
9184216844
9184222521
9184228807
9184235521
9184241563
9184248521
9184255602
9184261156
9184266832
9184272569
9184278551
9184284593
9184291246
9184297044
9184304368
9184309984
9184315233
9184321214
9184328050
9184333543
9184339952
9184344407
9184350206
9184354539
9184360765
9184365403
9184373643
9184379442
9184385362
9184390489
9184396470
9184402635
9184408250
9184414293
9184420518
9184426072
9184431749
9184435716
9184442063
9184447984
9184454759
9184459764
9184466722
9184471543
9184476060
9184483750
9184488389
9184495896
9184503098
9184508042
9184514085
9184520554
9184526475
9184529588
9184540147
9184545457
9184551682
9184558579
9184564317
9184570054
9184577683
9184583726
9184590745
9184594407
9184603440
9184608445
9184614426
9184622178
9184629258
9184635789
9184641831
9184648484
9184655442
9184662278
9184671006
9184677598
9184683701
9184690171
9184696579
9184702256
9184707505
9184716233
9184723069
9184729538
9184736252
9184742295
9184747177
9184752854
9184761399
9184766709
9184773850
9184778855
9184785507
9184791123
9184796982
9184803940
9184810471
9184816574
9184822495
9184829269
9184834274
9184841049
9184847458
9184855148
9184862473
9184868271
9184874802
9184880295
9184887070
9184892074
9184900803
9184905075
9184916305
9184923080
9184929123
9184935715
9184942062
9184949020
9184954330
9184961960
9184967941
9184973678
9184979477
9184986190
9184989669
9184998214
9185005111
9185011215
9185017807
9185022873
9185031784
9185037155
9185045394
9185049362
9185056869
9185065170
9185069686
9185076644
9185083724
9185090316
9185096359
9185103683
9185110336
9185116622
9185123092
9185129195
9185137008
9185142501
9185150619
9185156661
9185163802
9185170394
9185178268
9185187667
9185194137
9185200057
9185207625
9185213058
9185220016
9185225326
9185233016
9185238936
9185245406
9185252547
9185256881
9185263900
9185268905
9185277755
9185282393
9185287948
9185294051
9185299788
9185306258
9185310714
9185317305
9185323287
9185329390
9185334212
9185342879
9185348921
9185353682
9185361800
9185366622
9185374495
9185379256
9185386214
9185389693
9185398543
9185405501
9185411543
9185418562
9185424849
9185431502
9185437972
9185445052
9185452742
9185458174
9185463972
9185469771
9185475813
9185480940
9185485884
9185494429
9185500349
9185505903
9185511946
9185517988
9185523176
9185528547
9185533552
9185540022
9185546431
9185551802
9185557234
9185562971
9185569319
9185576094
9185581160
9185587935
9185593428
9185598799
9185603865
9185611311
9185617475
9185623152
9185628645
9185633650
9185640913
9185647138
9185652571
9185660017
9185664717
9185672163
9185678816
9185685163
9185691755
9185696638
9185705488
9185710371
9185716596
9185722883
9185728681
9185735456
9185740461
9185746748
9185752180
9185758405
9185761640
9185769086
9185777570
9185782941
9185790449
9185794477
9185801801
9185808149
9185814252
9185820905
9185828107
9185835065
9185840131
9185847699
9185853620
9185859662
9185867536
9185872175
9185879621
9185884870
9185892682
9185898664
9185906537
9185912336
9185919660
9185926191
9185932538
9185939008
9185946576
9185952069
9185960309
9185967328
9185973248
9185979352
9185986066
9185992475
9185997418
9186007123
9186011762
9186018720
9186024640
9186030682
9186036786
9186042706
9186049664
9186056195
9186062115
9186070843
9186078534
9186085309
9186091412
9186098187
9186104657
9186111188
9186116437
9186124005
9186128094
9186135296
9186142132
9186148541
9186154583
9186160382
9186166729
9186173016
9186178875
9186184796
9186191876
9186197064
9186205365
9186212078
9186218121
9186223431
9186229412
9186236920
9186243634
9186250958
9186257488
9186263714
9186270550
9186277874
9186286663
9186291790
9186300701
9186307415
9186312115
9186320049
9186325481
9186333721
9186339703
9186345684
9186349834
9186357708
9186364422
9186370464
9186378704
9186385601
9186392132
9186396831
9186402630
9186408672
9186414898
9186418621
9186428264
9186434734
9186440288
9186447124
9186451641
9186458904
9186463665
9186471416
9186477520
9186483135
9186488811
9186495281
9186502056
9186508342
9186514080
9186520427
9186528057
9186535259
9186541179
9186547344
9186553081
9186558330
9186564189
9186570293
9186576885
9186582744
9186587688
9186594035
9186598796
9186608379
9186613445
9186618877
9186625896
9186631572
9186637859
9186643474
9186650127
9186655803
9186661845
9186666972
9186672343
9186678752
9186683757
9186690044
9186696086
9186700481
9186707316
9186712688
9186718059
9186723369
9186729045
9186735331
9186741252
9186747111
9186753093
9186758708
9186763896
9186768901
9186775493
9186781840
9186787761
9186795390
9186801616
9186808879
9186814799
9186821940
9186827494
9186832316
9186840129
9186845866
9186851420
9186858134
9186863932
9186870585
9186876322
9186882609
9186888651
9186896159
9186901469
9186908366
9186913920
9186919474
9186925578
9186932414
9186938639
9186945597
9186952128
9186958292
9186965922
9186970927
9186979655
9186986735
9186992594
9186999979
9187006815
9187012552
9187019144
9187026957
9187031351
9187038981
9187045389
9187051249
9187057230
9187064371
9187070719
9187075846
9187084330
9187090738
9187097147
9187104227
9187110697
9187118998
9187125101
9187131632
9187138590
9187145059
9187151041
9187156290
9187165750
9187170633
9187176859
9187183206
9187189127
9187196024
9187202493
9187210794
9187215433
9187222879
9187228677
9187234720
9187240823
9187246683
9187254373
9187259439
9187267862
9187273965
9187280008
9187285745
9187292398
9187300210
9187306985
9187313516
9187321695
9187327920
9187333963
9187340249
9187345804
9187353311
9187359720
9187366617
9187372964
9187378152
9187385598
9187394265
9187401162
9187407083
9187413430
9187420816
9187425881
9187433389
9187438455
9187447000
9187452066
9187457925
9187464150
9187470193
9187475747
9187481973
9187490029
9187495889
9187504128
9187510476
9187516702
9187523476
9187528725
9187538003
9187545022
9187554360
