8913172006
8913179940
8913187143
8913194589
8913202279
8913209604
8913217050
8913224618
8913231576
8913239083
8913246347
8913254586
8913261178
8913268014
8913275277
8913282357
8913290170
8913295236
8913304696
8913311654
8913319894
8913327096
8913335152
8913342782
8913348946
8913357796
8913365060
8913372567
8913380074
8913387215
8913393441
8913399789
8913409798
8913416085
8913422799
8913430428
8913438729
8913446053
8913454354
8913461495
8913468636
8913474312
8913482918
8913490120
8913497261
8913505867
8913513558
8913521004
8913526924
8913533882
8913539620
8913548714
8913556710
8913564522
8913572518
8913577889
8913586312
8913592232
8913601021
8913608223
8913615852
8913622871
8913629646
8913637764
8913645882
8913652718
8913661690
8913669746
8913677498
8913685005
8913692512
8913700386
8913707039
8913716438
8913723213
8913730781
8913738289
8913746040
8913756111
8913762947
8913770454
8913779365
8913784980
8913793403
8913802559
8913809883
8913814399
8913824775
8913833503
8913839057
8913848518
8913854743
8913862129
8913870063
8913878242
8913883430
8913892829
8913898506
8913909553
8913916023
8913923896
8913931648
8913941169
8913950263
8913959235
8913966071
8913975410
8913981086
8913989143
8913996528
8914005012
8914013007
8914020026
8914026801
8914035773
8914043586
8914050727
8914058783
8914068366
8914074958
8914082465
8914089972
8914098212
8914105414
8914111396
8914120978
8914127753
8914136481
8914143439
8914151129
8914155524
8914164496
8914173957
8914182135
8914190863
8914197211
8914204474
8914210822
8914220221
8914229132
8914237067
8914244879
8914252692
8914258978
8914266547
8914276251
8914284125
8914292609
8914299872
8914308722
8914318976
8914326727
8914339483
8914347662
8914358038
8914366034
8914373724
8914381292
8914391180
8914397528
8914413763
8914423040
8914430853
8914440435
8914447210
8914454962
8914463690
8914472112
8914481939
8914489996
8914497076
8914503423
8914513311
8914521368
8914529791
8914535406
8914544683
8914553289
8914561285
8914568914
8914577032
8914582281
8914592168
8914601202
8914608831
8914616582
8914626958
8914634893
8914643987
8914652654
8914660100
8914668340
8914676641
8914684209
8914691472
8914699285
8914706670
8914715520
8914721135
8914731145
8914739751
8914747624
8914756352
8914762639
8914770268
8914779119
8914786992
8914794438
8914803838
8914808354
8914818791
8914826238
8914832097
8914842534
8914850102
8914859013
8914863591
8914872624
8914882146
8914887517
8914898015
8914904484
8914913334
8914920476
8914927617
8914935185
8914942875
8914948063
8914957768
8914967045
8914972966
8914981938
8914989506
8914997136
8915004765
8915011723
8915018803
8915026676
8915034550
8915040776
8915049320
8915056217
8915065434
8915075504
8915081486
8915088566
8915097294
8915103581
8915108708
8915120487
8915127628
8915134769
8915141422
8915149174
8915156864
8915166141
8915172611
8915179569
8915190006
8915197086
8915205936
8915213993
8915219608
8915227909
8915236454
8915244144
8915251163
8915257633
8915264469
8915272098
8915279178
8915286625
8915294071
8915301639
8915308658
8915316898
8915323734
8915331363
8915339054
8915346256
8915353580
8915361148
8915367740
8915377994
8915385196
8915393009
8915400333
8915407901
8915416080
8915422366
8915431339
8915437198
8915446902
8915454593
8915462283
8915472659
8915481509
8915488772
8915497684
8915502078
8915512088
8915519961
8915527896
8915534549
8915542849
8915549746
8915558597
8915565371
8915572696
8915580447
8915585269
8915597537
8915605593
8915613528
8915620669
8915630007
8915637026
8915645266
8915651126
8915659487
8915668521
8915675234
8915683596
8915690737
8915696658
8915703372
8915708437
8915715884
8915721682
8915729250
8915736514
8915743472
8915750185
8915756594
8915762331
8915768008
8915774721
8915780154
8915786928
8915792727
8915799013
8915803835
8915811770
8915818606
8915826235
8915832033
8915839113
8915846316
8915852907
8915859316
8915866396
8915872683
8915879152
8915884707
8915892153
8915899172
8915906191
8915915163
8915922975
8915929750
8915935793
8915943483
8915949282
8915957704
8915966738
8915974001
8915981813
8915988466
8915996034
8916002748
8916010683
8916017824
8916025392
8916034181
8916042055
8916048830
8916057008
8916062746
8916071657
8916080690
8916088502
8916095460
8916102663
8916111574
8916117799
8916126954
8916133546
8916139467
8916144899
8916154237
8916160890
8916167115
8916173524
8916178285
8916185792
8916193177
8916199647
8916204774
8916211915
8916219606
8916225709
8916233399
8916239015
8916248292
8916253785
8916263185
8916268556
8916275636
8916282716
8916289674
8916296815
8916305543
8916311890
8916319398
8916325684
8916335206
8916342103
8916349610
8916355958
8916364564
8916370911
8916377503
8916384278
8916392090
8916397278
8916404969
8916410279
8916419495
8916425049
8916432679
8916440247
8916445679
8916455018
8916462769
8916471619
8916479737
8916484925
8916492859
8916498047
8916505188
8916512085
8916518067
8916523255
8916530518
8916536072
8916542908
8916546997
8916554322
8916559571
8916565552
8916573303
8916579895
8916585999
8916591614
8916598450
8916605408
8916611084
8916616760
8916623291
8916629211
8916635376
8916642395
8916647095
8916654846
8916659485
8916667114
8916673767
8916680176
8916685242
8916691223
8916697754
8916704773
8916712890
8916718750
8916722168
8916733215
8916739135
8916744446
8916751648
8916755432
8916765503
8916771850
8916776428
8916782837
8916789245
8916795410
8916800232
8916805908
8916811767
8916817199
8916824096
8916829711
8916835266
8916841552
8916848144
8916852905
8916857543
8916864135
8916869689
8916875732
8916880981
8916887634
8916891967
8916898132
8916904235
8916907592
8916914245
8916920776
8916925536
8916932372
8916936767
8916944091
8916951110
8916956969
8916964049
8916970519
8916974242
8916981628
8916989562
8916994018
8917001403
8917007995
8917014220
8917019225
8917024901
8917031920
8917037169
8917044066
8917051452
8917058349
8917063720
8917071776
8917079100
8917083739
8917091307
8917099120
8917102965
8917112365
8917118651
8917126464
8917131774
8917138487
8917145201
8917153807
8917161009
8917167052
8917171385
8917178954
8917184874
8917191588
8917197508
8917206419
8917212096
8917219603
8917226805
8917232970
8917241637
8917246947
8917254393
8917262328
8917268248
8917277098
8917281859
8917289061
8917295042
8917302183
8917308592
8917316527
8917323851
8917330137
8917337584
8917343443
8917348875
8917354612
8917362181
8917369383
8917375425
8917383482
8917389219
8917395872
8917401731
8917408628
8917416197
8917423460
8917428831
8917435667
8917442137
8917445860
8917453428
8917459959
8917465452
8917472166
8917479429
8917484434
8917491453
8917497495
8917504148
8917509031
8917518736
8917526426
8917531858
8917540220
8917547544
8917553159
8917561216
8917566648
8917574033
8917582578
8917591062
8917597593
8917603635
8917609373
8917616697
8917621885
8917628843
8917636777
8917640867
8917647458
8917653379
8917658994
8917665525
8917671567
8917676938
8917683469
8917688718
8917694211
8917699643
8917706967
8917712766
8917718930
8917725888
8917731137
8917738217
8917743527
8917751767
8917758542
8917763486
8917769467
8917775388
8917783444
8917788510
8917796018
8917805234
8917810849
8917816892
8917823422
8917828305
8917836484
8917843137
8917848202
8917853329
8917859250
8917864621
8917869382
8917875302
8917881039
8917887875
8917891537
8917899045
8917904049
8917909604
8917916134
8917920468
8917926327
8917931088
8917937130
8917945004
8917950741
8917955075
8917961605
8917966061
8917972348
8917979306
8917984738
8917989437
8917997738
8918003964
8918009396
8918015866
8918021420
8918027340
8918034237
8918039364
8918045346
8918049862
8918057430
8918064266
8918068783
8918075619
8918081844
8918087338
8918094906
8918101925
8918107540
8918113400
8918118038
8918125179
8918132015
8918139889
8918146114
8918150448
8918157589
8918165340
8918170040
8918178280
8918184872
8918191768
8918197872
8918203548
8918208736
8918217220
8918226558
8918232845
8918239071
8918244625
8918252865
8918256527
8918265133
8918275020
8918280513
8918288448
8918294551
8918301265
8918307918
8918313655
8918321041
8918326656
8918333187
8918338802
8918346187
8918352840
8918359126
8918365779
8918371517
8918378902
8918382686
8918391902
8918398372
8918404231
8918412288
8918419612
8918424556
8918432185
8918439998
8918444453
8918452083
8918456477
8918464534
8918473079
8918477901
8918485042
8918491878
8918497676
8918504878
8918510066
8918516353
8918524653
8918530208
8918535457
8918542170
8918547358
8918556025
8918561457
8918567927
8918572932
8918579585
8918587275
8918592646
8918601435
8918607112
8918612971
8918620906
8918626521
8918634577
8918641902
8918648554
8918656245
8918662104
8918668025
8918675471
8918681025
8918688532
8918694941
8918700434
8918707087
8918711482
8918717280
8918724543
8918730708
8918737482
8918744135
8918750361
8918753718
8918761652
8918768915
8918774287
8918782282
8918787409
8918794611
8918801142
8918806757
8918815180
8918822870
8918830927
8918836359
8918842157
8918848810
8918855768
8918861933
8918866632
8918874384
8918880243
8918885797
8918892694
8918897211
8918904291
8918910395
8918914728
8918921015
8918925653
8918931635
8918939081
8918945246
8918950800
8918956598
8918961908
8918968683
8918973016
8918982172
8918988336
8918994806
8918999078
8919006158
8919011469
8919018427
8919024469
8919029657
8919036066
8919041925
8919046930
8919053400
8919060052
8919064996
8919071100
8919076837
8919082818
8919087457
8919094415
8919101129
8919107232
8919111871
8919117425
8919122918
8919128473
8919135553
8919142755
8919148187
8919153253
8919158990
8919165399
8919170892
8919175897
8919182672
8919189569
8919195550
8919202996
8919210321
8919216546
8919222467
8919229547
8919236077
8919242181
8919249627
8919255547
8919262200
8919268304
8919276116
8919281670
8919288934
8919295159
8919300713
8919308709
8919317315
8919324883
8919331597
8919338921
8919346184
8919350457
8919358025
8919365227
8919370537
8919377984
8919383172
8919390191
8919397881
8919403130
8919408318
8919416436
8919423577
8919429863
8919435967
8919442193
8919448601
8919454583
8919462151
8919467278
8919475029
8919480339
8919487053
8919495415
8919502800
8919508782
8919514336
8919520317
8919526909
8919533135
8919539787
8919546196
8919552727
8919558769
8919564629
8919570671
8919578728
8919582451
8919590508
8919598869
8919605278
8919610527
8919616997
8919623650
8919630058
8919637016
8919641838
8919649650
8919656608
8919661980
8919668632
8919674431
8919681938
8919687248
8919693168
8919701164
8919705559
8919712578
8919720390
8919724968
8919733207
8919739250
8919745842
8919754142
8919760307
8919766655
8919772941
8919779350
8919786369
8919794548
8919801628
8919806571
8919814018
8919820793
8919826957
8919833488
8919837882
8919847892
8919853935
8919860099
8919865409
8919871269
8919877555
8919884696
8919891044
8919898673
8919903800
8919910758
8919917350
8919922538
8919929313
8919936210
8919941337
8919950492
8919957084
8919961845
8919970450
8919976798
8919983634
8919991385
8919996451
8920003226
8920008353
8920014335
8920020865
8920026481
8920031669
8920038871
8920043570
8920050650
8920056083
8920061637
8920066886
8920072623
8920078604
8920084281
8920091117
8920095328
8920101371
8920106925
8920112967
8920119010
8920124625
8920130728
8920136710
8920141532
8920148062
8920153372
8920158865
8920163748
8920171134
8920174429
8920181509
8920188529
8920194144
8920197989
8920204398
8920211417
8920217642
8920223013
8920229056
8920234488
8920240530
8920245718
8920252493
8920257620
8920263052
8920269278
8920274771
8920280508
8920285879
8920291678
8920299673
8920304007
8920310354
8920316153
8920322806
8920327200
8920334768
8920339041
8920346487
8920351431
8920357718
8920362783
8920369375
8920376455
8920382070
8920388540
8920395986
8920399710
8920408377
8920412161
8920420706
8920427481
8920432119
8920440908
8920446096
8920452322
8920460134
8920466482
8920472402
8920480703
8920486318
8920494192
8920504873
8920512441
8920519765
8920525686
8920533193
8920539724
8920547109
8920554739
8920561330
8920568105
8920572988
8920579824
8920586294
8920593679
8920600576
8920606862
8920612111
8920618032
8920624868
8920631948
8920637319
8920643667
8920651296
8920656728
8920662221
8920669728
8920675161
8920681691
8920689443
8920694875
8920700124
8920708058
8920714650
8920720143
8920725453
8920733327
8920739919
8920747060
8920750722
8920758290
8920764333
8920771413
8920777944
8920784413
8920788197
8920797292
8920801625
8920809865
8920814503
8920821645
8920829091
8920835622
8920841786
8920847951
8920853566
8920859852
8920866627
8920871388
8920879567
8920886464
8920892811
8920898243
8920906300
8920911732
8920918202
8920923695
8920931202
8920937306
8920943837
8920950734
8920957386
8920964039
8920969777
8920978627
8920984242
8920993946
8920999562
8921005848
8921013050
8921019520
8921025257
8921032276
8921038807
8921047047
8921053639
8921060108
8921066334
8921072193
8921075855
8921083668
8921091297
8921097157
8921103687
8921110462
8921116932
8921124073
8921130115
8921135487
8921143421
8921152882
8921159351
8921166309
8921171558
8921179127
8921185901
8921191883
8921197498
8921203907
8921210804
8921216785
8921221058
8921229541
8921236194
8921240650
8921246509
8921251697
8921257862
8921264209
8921268299
8921276783
8921283496
8921288501
8921293628
8921299304
8921304492
8921311939
8921318042
8921325977
8921331775
8921337573
8921342761
8921348804
8921354419
8921359790
8921364612
8921371631
8921376087
8921383106
8921390857
8921396716
8921400745
8921408008
8921413379
8921418689
8921424609
8921431201
8921436389
8921441943
8921446216
8921451587
8921458484
8921464099
8921469836
8921475451
8921481067
8921487414
8921493396
8921498523
8921506152
8921511523
8921517260
8921524157
8921531237
8921537402
8921543567
8921549121
8921554248
8921562243
8921567797
8921574816
8921582141
8921590808
8921603137
8921608996
8921618029
8921626147
8921632189
8921640368
8921647021
8921654467
8921663928
8921670153
8921677111
8921682055
8921689867
8921696581
8921703722
8921712389
8921718737
8921724963
8921730883
8921737902
8921744433
8921752489
8921757372
8921763720
8921769762
8921777392
8921783312
8921790148
8921796801
8921803087
8921809313
8921816210
8921821520
8921829882
8921836351
8921843126
8921848864
8921853685
8921861376
8921868090
8921873766
8921881884
8921887804
8921894762
8921902391
8921908190
8921911852
8921919603
8921927049
8921933763
8921939684
8921945238
8921952684
8921957994
8921964464
8921971056
8921976061
8921983507
8921989366
8921995714
8922001878
8922007982
8922015001
8922021410
8922028734
8922036180
8922040758
8922047349
8922055406
8922062242
8922067491
8922074632
8922080858
8922087633
8922093980
8922102159
8922107835
8922115709
8922122361
8922130906
8922137376
8922144456
8922149644
8922162461
8922172654
8922178636
8922185716
8922192796
8922198472
8922208726
8922217027
8922224229
8922230821
8922236009
8922242845
8922247971
8922255479
8922261155
8922266221
8922271287
8922278733
8922284470
8922290513
8922296250
8922301865
8922306870
8922314439
8922320176
8922325242
8922330552
8922338975
8922345383
8922351853
8922358384
8922362900
8922369004
8922375229
8922381150
8922388291
8922395432
8922401658
8922406052
8922412766
8922419175
8922424729
8922429245
8922434800
8922440964
8922446824
8922452561
8922458542
8922463364
8922469406
8922474717
8922480881
8922487534
8922492905
8922497910
8922502671
8922509751
8922514939
8922521836
8922525742
8922533127
8922538376
8922543808
8922548874
8922554367
8922560349
8922566513
8922572434
8922578415
8922583176
8922589279
8922595139
8922599838
8922606552
8922611679
8922618210
8922622909
8922630051
8922635727
8922642013
8922645370
8922652878
8922658493
8922665695
8922672348
8922678634
8922683944
8922690231
8922695663
8922701950
8922708114
8922713119
8922719955
8922726059
8922732528
8922738998
8922745956
8922753585
8922760116
8922768478
8922774459
8922780746
8922786911
8922794601
8922801864
8922809555
8922813217
8922820968
8922827255
8922833663
8922839767
8922847457
8922851302
8922860580
8922865096
8922872176
8922878341
8922884872
8922891952
8922897384
8922903548
8922911300
8922915877
8922923385
8922927840
8922935042
8922941939
8922948287
8922952682
8922960616
8922967086
8922973372
8922979903
8922986251
8922991500
8922997847
8923004805
8923011214
8923018233
8923023238
8923030318
8923036849
8923043502
8923050643
8923057051
8923061812
8923069808
8923075118
8923081343
8923088362
8923094527
8923099471
8923106246
8923113326
8923120040
8923125044
8923132124
8923139144
8923145247
8923153059
8923159468
8923164900
8923173262
8923179366
8923185713
8923192061
8923197859
8923203169
8923212752
8923217635
8923225813
8923232222
8923238631
8923243147
8923251387
8923259749
8923264815
8923271040
8923276106
8923282149
8923288496
8923294539
8923299788
8923307661
8923313948
8923319197
8923324080
8923331282
8923336714
8923344343
8923353804
8923360273
8923371382
8923378706
8923386213
8923395246
8923403608
8923409956
8923417585
8923423567
8923431562
8923438642
8923444746
8923451215
8923457929
8923463239
8923469892
8923476179
8923480756
8923487043
8923493696
8923499738
8923504316
8923511030
8923517438
8923522810
8923529340
8923535078
8923539594
8923546979
8923553510
8923558759
8923563276
8923570661
8923575361
8923583051
8923588422
8923595929
8923600995
8923607953
8923613019
8923620282
8923625470
8923631330
8923638349
8923644208
8923649213
8923656049
8923661298
8923668012
8923674726
8923679364
8923684308
8923692060
8923697736
8923703168
8923708783
8923714337
8923719769
8923725324
8923731183
8923736676
8923742474
8923748456
8923753949
8923758527
8923764630
8923769269
8923775555
8923780255
8923786542
8923793378
8923798932
8923803998
8923809369
8923816205
8923820416
8923826581
8923832196
8923837506
8923844037
8923848736
8923853924
8923860394
8923866315
8923872357
8923877972
8923884015
8923888897
8923894879
8923903607
8923909527
8923915692
8923922162
8923929120
8923934246
8923941449
8923947125
8923952374
8923960064
8923965130
8923973126
8923978924
8923986065
8923989788
8923998577
8924002606
8924010174
8924016705
8924023358
8924029583
8924036602
8924043987
8924049358
8924055706
8924062603
8924069073
8924074383
8924081036
8924086590
8924095135
8924100384
8924106609
8924112347
8924120159
8924125469
8924131878
8924139568
8924144756
8924150310
8924157940
8924163433
8924171184
8924177349
8924183758
8924190349
8924197918
8924201702
8924209270
8924215313
8924222149
8924226055
8924235332
8924242351
8924248821
8924253521
8924260906
8924268047
8924274517
8924279521
8924287578
8924292278
8924299907
8924304485
8924312419
8924316936
8924324748
8924329204
8924337261
8924344829
8924351299
8924357585
8924362468
8924369670
8924376079
8924382610
8924389201
8924395976
8924400737
8924408610
8924413371
8924420634
8924427043
8924433940
8924438762
8924445354
8924451762
8924458293
8924465190
8924470195
8924476726
8924484782
8924491740
8924497844
8924504680
8924509868
8924516764
8924522685
8924529887
8924535685
8924541301
8924548686
8924559794
8924566508
8924572795
8924578410
8924586283
8924592265
8924601847
8924609538
8924615946
8924625529
8924632853
8924640605
8924649577
8924656474
8924662882
8924669901
8924676432
8924682230
8924688456
8924694743
8924699931
8924707133
8924713297
8924718851
8924725138
8924731425
8924736796
8924743265
8924749369
8924756205
8924762552
8924768839
8924774576
8924780802
8924785318
8924792460
8924797098
8924805277
8924810465
8924817240
8924822733
8924828165
8924833902
8924840128
8924848246
8924853067
8924859720
8924864542
8924870157
8924877298
8924882120
8924887552
8924896036
8924902078
8924907877
8924913370
8924919107
8924924234
8924931070
8924937296
8924942850
8924948343
8924953836
8924959573
8924964883
8924969766
8924977457
8924982828
8924988565
8924994180
8924999490
8925005228
8925011758
8925018106
8925023416
8925029153
8925034830
8925040262
8925045694
8925051675
8925056802
8925061624
8925069070
8925074075
8925079568
8925083230
8925090921
8925100076
8925104837
8925112222
8925117044
8925124856
8925130899
8925137246
8925143838
8925151528
8925158853
8925163919
8925170938
8925175393
8925182717
8925187844
8925201638
8925209023
8925216165
8925221658
8925227883
8925233437
8925239846
8925245950
8925251748
8925258218
8925264565
8925269814
8925278481
8925285378
8925290749
8925297402
8925304238
8925309731
8925316567
8925321999
8925329262
8925334633
8925341225
8925348672
8925355019
8925361489
8925367531
8925374001
8925380288
8925387490
8925391213
8925399270
8925405373
8925411782
8925417885
8925424660
8925430642
8925437111
8925444252
8925450539
8925456337
8925462807
8925469155
8925475563
8925483437
8925488747
8925495583
8925500771
8925507363
8925512673
8925519814
8925526467
8925534279
8925539894
8925545937
8925553078
8925557716
8925564613
8925571510
8925577492
8925584877
8925590980
8925597511
8925603371
8925607765
8925614967
8925622169
8925628639
8925634071
8925641029
8925646278
8925653602
8925658485
8925663856
8925672767
8925683387
8925688453
8925694374
8925701210
8925707130
8925714210
8925723671
8925729164
8925736671
8925743629
8925750160
8925757545
8925762794
8925771949
8925777381
8925783790
8925790687
8925796729
8925802772
8925811195
8925817054
8925823341
8925830787
8925835853
8925841346
8925849647
8925855750
8925862098
8925866676
8925875892
8925880286
8925887672
8925891151
8925899512
8925903052
8925912025
8925918616
8925926490
8925933021
8925938148
8925943885
8925950599
8925957435
8925962989
8925969275
8925976600
8925982703
8925988440
8925994361
8926000220
8926007117
8926010840
8926019202
8926022986
8926030371
8926033667
8926042151
8926045569
8926053015
8926060828
8926066870
8926072669
8926076941
8926084265
8926088599
8926094336
8926099951
8926108374
8926113135
8926119055
8926123206
8926129797
8926134131
8926139685
8926144385
8926151648
8926157752
8926162817
8926166357
8926172644
8926178564
8926182532
8926189429
8926195593
8926200659
8926204993
8926211340
8926215613
8926221106
8926225744
8926232825
8926238928
8926244116
8926249487
8926254553
8926260046
8926265173
8926272497
8926277075
8926282568
8926288183
8926293310
8926299597
8926310095
8926316504
8926322241
8926328344
8926335363
8926340063
8926346655
8926352575
8926365576
8926371740
8926379370
8926384497
8926390478
8926395300
8926402807
8926406835
8926414343
8926420385
8926426306
8926432287
8926438574
8926444128
8926450842
8926456518
8926462438
8926468603
8926475866
8926481237
8926489416
8926495153
8926501195
8926508459
8926513341
8926522375
8926529027
8926535375
8926541356
8926548437
8926554174
8926558568
8926565282
8926573034
8926579931
8926585912
8926591771
8926598302
8926604772
8926611181
8926621190
8926626867
8926633580
8926639440
8926644628
8926651952
8926657811
8926665441
8926671971
8926677709
8926685094
8926691136
8926696935
8926703588
8926709752
8926716527
8926723546
8926730077
8926735753
8926743321
8926750645
8926756322
8926763585
8926770360
8926777196
8926782628
8926791112
8926797154
8926803075
8926810033
8926817418
8926822484
8926829075
8926836461
8926844151
8926850560
8926857030
8926865391
8926872471
8926879307
8926885655
8926892064
8926898411
8926905125
8926911229
8926916722
8926924290
8926932042
8926938145
8926943699
8926951878
8926958226
8926965061
8926971714
8926978062
8926985569
8926990757
8926997959
8927005161
8927011448
8927016941
8927024387
8927030064
8927038731
8927044285
8927050755
8927055943
8927061070
8927069492
8927077000
8927082249
8927090000
8927096958
8927102634
8927108372
8927115635
8927122593
8927127842
8927134373
8927140537
8927145359
8927153660
8927159885
8927165012
8927171848
8927177768
8927184299
8927190647
8927197727
8927203281
8927208713
8927214939
8927222080
8927226657
8927233799
8927240268
8927246128
8927252048
8927256626
8927262729
8927269687
8927276279
8927283725
8927286777
8927293918
8927299472
8927305637
8927311435
8927317294
8927325595
8927332675
8927338229
8927344638
8927350497
8927357211
8927363315
8927369540
8927376315
8927381320
8927391635
8927396762
8927404330
8927409396
8927416232
8927421359
8927427096
8927436313
8927443698
8927450778
8927456088
8927462375
8927468600
8927475985
8927481540
8927487826
8927493502
8927499423
8927505465
8927511996
8927516757
8927523471
8927529086
8927534640
8927540438
8927544528
8927552523
8927557589
8927564059
8927570529
8927577059
8927582980
8927590060
8927595675
8927602145
8927607943
8927614474
8927621798
8927629061
8927635470
8927643771
8927650973
8927656405
8927663058
8927670138
8927678011
8927683810
8927692110
8927697481
8927705782
8927712618
8927719027
8927725802
8927731295
8927738741
8927745577
8927751986
8927757784
8927762789
8927769991
8927778414
8927783541
8927790987
8927796663
8927804232
8927811434
8927818880
8927824129
8927832003
8927837679
8927843782
8927848726
8927856905
8927864290
8927871309
8927879183
8927885591
8927893648
8927900118
8927907015
8927916048
8927924532
8927931795
8927938936
8927945894
8927953828
8927961153
8927967561
8927974153
8927981294
8927987520
8927993257
8928001985
8928009004
8928016145
8928022310
8928028779
8928034883
8928041231
8928045015
8928053010
8928060701
8928067109
8928071565
8928078706
8928085237
8928091645
8928098542
8928103364
8928110200
8928116548
8928120942
8928129243
8928134919
8928141206
8928148469
8928153230
8928161225
8928167451
8928173615
8928179963
8928185822
8928191987
8928198945
8928203401
8928210725
8928216889
8928224275
8928228913
8928235444
8928242158
8928247346
8928253999
8928260163
8928264924
8928272309
8928277009
8928283540
8928290009
8928296235
8928302888
8928308808
8928313935
8928320771
8928325837
8928332490
8928337739
8928344208
8928349518
8928357392
8928362458
8928369233
8928375092
8928380158
8928387360
8928393219
8928399384
8928405487
8928411774
8928417878
8928424042
8928427948
8928435150
8928439301
8928446686
8928450836
8928456940
8928463043
8928468476
8928474396
8928480561
8928485565
8928492401
8928495575
8928502960
8928509979
8928514740
8928521637
8928528595
8928534332
8928540253
8928546600
8928551239
8928558014
8928562836
8928568695
8928575287
8928580719
8928587677
8928593841
8928600372
8928605865
8928611664
8928617950
8928623443
8928629364
8928634979
8928641510
8928647003
8928651825
8928658722
8928663543
8928671173
8928676666
8928683197
8928689666
8928695526
8928701568
8928707489
8928713592
8928719451
8928725738
8928731964
8928737396
8928743560
8928748992
8928753448
8928760772
8928767852
8928774322
8928779876
8928787078
8928792571
8928799835
8928805328
8928813079
8928819000
8928824615
8928830962
8928837615
8928843963
8928851226
8928858733
8928865081
8928870818
8928877105
8928882781
8928889861
8928895965
8928900603
8928910003
8928915557
8928923553
8928929351
8928935149
8928941070
8928947295
8928953277
8928960479
8928967009
8928971709
8928978911
8928986113
8928992522
8928998320
8929006682
8929012786
8929018828
8929024138
8929031340
8929037383
8929043059
8929048430
8929056426
8929062712
8929069243
8929075408
8929081389
8929087370
8929094939
8929098784
8929107817
8929114104
8929121428
8929130095
8929135222
8929143401
8929148711
8929157988
8929163725
8929170988
8929176421
8929182890
8929190153
8929196867
8929206084
8929212736
8929218901
8929224882
8929230314
8929237395
8929242705
8929249663
8929255400
8929263517
8929269560
8929276152
8929282499
8929289091
8929295317
8929301908
8929308866
8929314787
8929319365
8929326994
8929333586
8929340177
8929346891
8929352140
8929359709
8929365812
8929372282
8929379423
8929385771
8929390714
8929397733
8929405607
8929412321
8929419828
8929426725
8929432462
8929439787
8929445280
8929453031
8929458402
8929464445
8929471159
8929476957
8929483671
8929489713
8929495084
8929501249
8929508207
8929514371
8929519620
8929526578
8929531705
8929537687
8929544156
8929549955
8929555265
8929563077
8929568204
8929574857
8929580045
8929587552
8929592862
8929598661
8929606656
8929613370
8929619474
8929625333
8929629666
8929636808
8929643155
8929649381
8929655728
8929661771
8929666410
8929672513
8929679288
8929685452
8929691617
8929697537
8929704068
8929708280
8929715054
8929721219
8929726346
8929731290
8929738858
8929744290
8929751126
8929755704
8929763577
8929769131
8929775479
8929780850
8929786221
8929791409
8929797635
8929804288
8929810818
8929817837
8929822110
8929829617
8929833890
8929840359
8929846463
8929852383
8929856961
8929862820
8929867337
8929874173
8929878933
8929886624
8929891934
8929897915
8929905239
8929911099
8929915188
8929922879
8929929898
8929934170
8929941677
8929946072
8929953091
8929957485
8929964932
8929969509
8929976284
8929982632
8929988857
8929993801
8930000637
8930005520
8930013271
8930019619
8930024868
8930032620
8930038235
8930044399
8930050076
8930055386
8930062893
8930068203
8930075710
8930081814
8930088772
8930095241
8930101650
8930107876
8930114773
8930121364
8930127773
8930134731
8930141140
8930145656
8930153530
8930158107
8930165371
8930172084
8930178493
8930185207
8930191799
8930197048
8930203518
8930207363
8930218105
8930223964
8930230983
8930236843
8930243801
8930248805
8930255641
8930262355
8930267787
8930275966
8930279689
8930287746
8930293727
8930299709
8930306423
8930311122
8930318507
8930325588
8930331813
8930339381
8930347072
8930352565
8930359523
8930368495
8930376369
8930380885
8930388515
8930394740
8930401149
8930409144
8930414332
8930422694
8930428920
8930435817
8930440761
8930448329
8930453090
8930459498
8930465968
8930473903
8930478846
8930485499
8930492518
8930498866
8930503627
8930510401
8930517359
8930523646
8930530482
8930535548
8930542445
8930548426
8930555445
8930561549
8930569300
8930574732
8930582789
8930589259
8930595362
8930600977
8930607081
8930613429
8930619593
8930626368
8930632471
8930639429
8930646143
8930652430
8930659083
8930666102
8930673060
8930681177
8930685450
8930694056
8930700587
8930706873
8930713099
8930718531
8930723963
8930732386
8930738123
8930744288
8930750208
8930756373
8930760157
8930767847
8930773829
8930780420
8930786768
8930792994
8930796778
8930805750
8930809473
8930817224
8930827783
8930834009
8930839197
8930845484
8930852197
8930858545
8930864038
8930870142
8930877100
8930883569
8930888635
8930895227
8930901270
8930905908
8930912927
8930917749
8930925256
8930931909
8930937036
8930943750
8930949548
8930956262
8930962976
8930968835
8930975427
8930981470
8930986902
8930992151
8930999109
8931003931
8931011621
8931015344
8931022485
8931028955
8931035547
8931041711
8931047448
8931054101
8931060144
8931065576
8931070031
8931078210
8931081506
8931088708
8931094079
8931100122
8931106347
8931111840
8931117761
8931123437
8931129235
8931135217
8931141015
8931145776
8931153161
8931157739
8931163354
8931170922
8931176171
8931181054
8931188256
8931193993
8931199426
8931204919
8931211083
8931216637
8931224023
8931230004
8931235986
8931242028
8931248071
8931253930
8931259850
8931266625
8931271020
8931278405
8931284692
8931291711
8931297082
8931304406
8931309777
8931316491
8931322045
8931329796
8931336022
8931342614
8931349511
8931355736
8931362389
8931366906
8931373497
8931380639
8931388085
8931393151
8931399681
8931404991
8931412011
8931417748
8931425255
8931432884
8931437645
8931445030
8931451744
8931458336
8931463463
8931469933
8931477867
8931486595
8931491905
8931499291
8931504662
8931511437
8931517723
8931523216
8931530907
8931534813
8931544029
8931548485
8931558189
8931565819
8931570518
8931583153
8931587059
8931595726
8931599510
8931607994
8931612022
8931621483
8931628258
8931636619
8931643821
8931648643
8931655418
8931661766
8931668602
8931675621
8931682762
8931688133
8931695640
8931700950
8931708519
8931713829
8931721092
8931726585
8931734275
8931740501
8931747337
8931753684
8931759178
8931764610
8931771263
8931778953
8931784446
8931789817
8931796470
8931801719
8931808799
8931814109
8931821800
8931828086
8931834434
8931839805
8931847617
8931853782
8931860862
8931864707
8931872764
8931878989
8931886741
8931891074
8931900046
8931906699
8931912864
8931918723
8931925986
8931932639
8931941672
8931948264
8931956260
8931960288
8931968161
8931973838
8931981711
8931987693
8931994101
8932000022
8932005820
8932011679
8932017295
8932023154
8932030173
8932036948
8932043173
8932046775
8932054892
8932058493
8932066977
8932073630
8932079794
8932086447
8932091147
8932097922
8932103903
8932108237
8932115866
8932120566
8932128500
8932133322
8932140463
8932147421
8932153525
8932159506
8932165671
8932171591
8932178305
8932188315
8932194174
8932200705
8932204916
8932213461
8932217123
8932224753
8932231100
8932236838
8932244162
8932250753
8932256857
8932262228
8932268454
8932274679
8932280294
8932286032
8932291708
8932297811
8932303427
8932309530
8932317648
8932323995
8932328817
8932335348
8932339987
8932345785
8932350546
8932357626
8932363546
8932369344
8932376058
8932381796
8932387594
8932393392
8932399252
8932405416
8932410787
8932416891
8932422933
8932427755
8932434286
8932439169
8932445760
8932450704
8932458700
8932464376
8932469930
8932475667
8932482259
8932485738
8932494649
8932498800
8932505941
8932511861
8932517782
8932523214
8932528951
8932535909
8932542867
8932550252
8932555623
8932561483
8932568746
8932573812
8932579671
8932586263
8932594564
8932601522
8932608052
8932613179
8932619893
8932625081
8932632649
8932638936
8932646077
8932650716
8932657979
8932664021
8932670247
8932676900
8932681661
8932691365
8932696553
8932703633
8932709493
8932716512
8932720967
8932727498
8932736714
8932741414
8932748250
8932756062
8932762898
8932771321
8932777608
8932783589
8932791279
8932797444
8932804768
8932810200
8932816304
8932823323
8932829365
8932837727
8932845295
8932851033
8932858418
8932863911
8932870198
8932877949
8932883625
8932889180
8932897114
8932903279
8932910115
8932916462
8932923054
8932929280
8932935810
8932942463
8932949665
8932955952
8932962300
8932966084
8932974201
8932980305
8932987934
8932992573
8933000324
8933008198
8933019306
8933024067
8933030842
8933037495
8933045002
8933049641
8933057209
8933062214
8933068439
8933073871
8933079853
8933086506
8933092426
8933097431
8933103718
8933108600
8933115619
8933120746
8933127826
8933133625
8933141376
8933147175
8933155109
8933162128
8933168903
8933176593
8933184467
8933191547
8933199787
8933205646
8933211078
8933218036
8933224201
8933230854
8933235370
8933243122
8933249774
8933254169
8933260272
8933266620
8933272724
8933277912
8933285053
8933292194
8933297931
8933303546
8933309894
8933315631
8933320270
8933328448
8933333575
8933340655
8933346881
8933353961
8933358050
8933366351
8933374286
8933379779
8933388263
8933393634
8933401690
8933407550
8933413836
8933421283
8933426288
8933431598
8933438434
8933445331
8933451434
8933456561
8933462909
8933468890
8933474078
8933480365
8933484942
8933492450
8933497760
8933502703
8933508197
8933514849
8933518023
8933525714
8933532122
8933537676
8933542864
8933548358
8933555926
8933561724
8933567645
8933572283
8933577960
8933584673
8933589983
8933594866
8933601580
8933607012
8933613055
8933616290
8933623309
8933629046
8933635393
8933642413
8933648577
8933653765
8933660174
8933666155
8933671160
8933677264
8933684099
8933690935
8933696490
8933702227
8933707903
8933714251
8933719927
8933726580
8933732561
8933738421
8933744402
8933750383
8933757158
8933761614
8933767900
8933774004
8933781023
8933786699
8933794390
8933800188
8933806230
8933816545
8933823381
8933830400
8933835771
8933841753
8933848345
8933854509
8933859697
8933867449
8933873735
8933880815
8933887407
8933893572
8933899309
8933905962
8933912065
8933917436
8933926042
8933931779
8933940630
8933948259
8933954362
8933962419
8933971879
8933980424
8933988298
8933993913
8934000688
8934007524
8934015458
8934022905
8934030290
8934036577
8934041826
8934049272
8934054704
8934061723
8934067216
8934074540
8934079728
8934087297
8934093400
8934099198
8934104631
8934113542
8934120683
8934127458
8934133561
8934139909
8934146134
8934152726
8934156632
8934165177
8934172135
8934178422
8934185014
8934191422
8934195939
8934202958
8934209794
8934216264
8934222611
8934229386
8934236039
8934242509
8934244706
8934253983
8934260941
8934267350
8934275101
8934280045
8934286637
8934293168
8934300126
8934305070
8934311905
8934318375
8934325089
8934331559
8934337784
8934344193
8934351456
8934356339
8934363602
8934370865
8934377213
8934384110
8934390152
8934396195
8934404129
8934410477
8934417069
8934424881
8934431961
8934437943
8934445267
8934450516
8934457596
8934464737
8934471512
8934476517
8934483353
8934487869
8934494644
8934501175
8934506058
8934512100
8934519363
8934524429
8934535782
8934543106
8934552994
8934558487
8934563919
8934569534
8934576797
8934589737
8934596268
8934602127
8934608597
8934615188
8934622635
8934629471
8934636184
8934641617
8934649124
8934655471
8934661819
8934667312
8934674331
8934679885
8934686904
8934691909
8934699600
8934705947
8934711441
8934716812
8934722610
8934728225
8934734207
8934739395
8934745315
8934750869
8934757034
8934763198
8934767837
8934774612
8934779800
8934785354
8934790725
8934795486
8934800246
8934806899
8934813979
8934819472
8934825149
8934830886
8934836929
8934841018
8934846938
8934852492
8934859389
8934865371
8934870437
8934876174
8934881850
8934887099
8934893569
8934898757
8934909377
8934915053
8934919814
8934926650
8934931350
8934937575
8934943190
8934949904
8934956923
8934963149
8934968703
8934973403
8934979811
8934984938
8934992507
8934995986
8935004042
8935011306
8935015395
8935022414
8935030043
8935036940
8935042983
8935049025
8935055129
8935061049
8935067336
8935074599
8935081618
8935087904
8935094130
8935100295
8935106154
8935112257
8935119032
8935124831
8935133681
8935139479
8935145949
8935152174
8935159498
8935166640
8935173048
8935182570
8935190809
8935198622
8935205580
8935210341
8935216871
8935223524
8935230909
8935238539
8935243177
8935250990
8935255384
8935262892
8935269300
8935275648
8935282667
8935289137
8935295362
8935300428
8935308546
8935313429
8935320204
8935326551
8935333387
8935339735
8935345838
8935352125
8935358656
8935364942
8935371778
8935377027
8935385267
8935390150
8935398206
8935403211
8935409925
8935416944
8935423048
8935430189
8935437269
8935442640
8935449781
8935455152
8935461317
8935468702
8935476453
8935482618
8935488416
8935493604
8935501722
8935505567
8935513868
8935519849
8935527662
8935533887
8935540235
8935546766
8935552991
8935558912
8935565137
8935571912
8935578748
8935584912
8935592054
8935597303
8935604261
8935610364
8935617261
8935623303
8935631055
8935639173
8935645276
8935652417
8935657971
8935665418
8935670850
8935677197
8935682324
8935692273
8935697949
8935705090
8935711987
8935717603
8935724377
8935729871
8935736890
8935744336
8935749768
8935755017
8935760327
8935765576
8935770154
8935776074
8935784863
8935794385
8935801098
8935807995
8935816906
8935822522
8935829541
8935835827
8935842175
8935854199
8935859570
8935865307
8935871655
8935878125
8935884472
8935889172
8935894360
8935900463
8935905895
8935914257
8935919934
8935925122
8935931530
8935937756
8935942639
8935950817
8935955822
8935961315
8935968029
8935974255
8935980358
8935985668
8935991650
8935997021
8936003368
8936009045
8936014538
8936020336
8936025707
8936031689
8936037975
8936042736
8936048717
8936053844
8936059826
8936065563
8936070202
8936076732
8936081920
8936089367
8936094677
8936100048
8936105053
8936111522
8936116832
8936122753
8936128185
8936134777
8936140453
8936146190
8936151806
8936157909
8936163829
8936168773
8936176769
8936182506
8936188732
8936194469
8936200145
8936206188
8936212596
8936218212
8936223277
8936230052
8936235423
8936241771
8936248668
8936254588
8936262401
8936267284
8936273814
8936278941
8936286571
8936290355
8936298778
8936307384
8936314220
8936323192
8936329356
8936336131
8936342601
8936351390
8936357554
8936364451
8936373790
8936380931
8936388255
8936393748
8936400035
8936407481
8936414805
8936420482
8936427318
8936432628
8936439952
8936445445
8936453563
8936460521
8936468699
8936472605
8936481456
8936488414
8936494822
8936499339
8936506114
8936514475
8936520884
8936525401
8936532237
8936539561
8936545970
8936550486
8936557688
8936564768
8936571299
8936575938
8936583140
8936591013
8936597300
8936604319
8936611521
8936617075
8936624033
8936629771
8936636912
8936643381
8936649363
8936656138
8936663218
8936670908
8936676951
8936684092
8936687937
8936696299
8936702463
8936708079
8936713877
8936722605
8936726938
8936735178
8936741709
8936748301
8936755686
8936762949
8936768686
8936775278
8936781748
8936787180
8936796030
8936802133
8936808237
8936814157
8936822458
8936828501
8936834970
8936841013
8936847910
8936851755
8936860178
8936866647
8936873178
8936880808
8936888254
8936893259
8936900278
8936907602
8936915659
8936922311
8936929147
8936936288
8936943307
8936948129
8936956186
8936960092
8936968698
8936976144
8936987680
8936993783
8936998056
8937005563
8937012460
8937019174
8937025705
8937030038
8937036996
8937043161
8937050119
8937057687
8937064096
8937071054
8937076059
8937082223
8937089303
8937095407
8937101937
8937105538
8937113107
8937119576
8937126412
8937130013
8937138436
8937144784
8937150948
8937157662
8937163766
8937168404
8937175668
8937181344
8937186959
8937192574
8937198312
8937203927
8937210030
8937215035
8937220895
8937227486
8937233346
8937239083
8937244515
8937251473
8937256966
8937262459
8937268075
8937273629
8937279366
8937285042
8937291512
8937295846
8937303963
8937308602
8937314644
8937319222
8937325570
8937330697
8937337410
8937345406
8937350838
8937357186
8937360237
8937367928
8937373909
8937377877
8937386116
8937390877
8937397713
8937402718
8937408150
8937413704
8937420052
8937427132
8937433174
8937439400
8937444222
8937450081
8937456856
8937462349
8937471382
8937478645
8937485420
8937491341
8937496895
8937502388
8937508919
8937515022
8937522041
8937527656
8937534737
8937541572
8937545967
8937555000
8937564766
8937571480
8937578438
8937584114
8937592293
8937597664
8937603218
8937610969
8937619270
8937625496
8937633186
8937638679
8937645942
8937652168
8937659126
8937665412
8937671455
8937677558
8937684150
8937690315
8937697578
8937701423
8937710517
8937718086
8937726631
8937732368
8937739326
8937745185
8937752082
8937758247
8937763191
8937771064
8937775886
8937784370
8937789924
8937796455
8937803413
8937808967
8937816291
8937823554
8937828803
8937835029
8937840278
8937848273
8937853889
8937860908
8937866950
8937874213
8937879951
8937887153
8937891181
8937899848
8937906623
8937913031
8937917670
8937925788
8937930487
8937938239
8937945563
8937950385
8937958442
8937963446
8937971625
8937976508
8937981269
8937989997
8937997321
8938002143
8938009040
8938016120
8938022589
8938029669
8938036566
8938042059
8938049384
8938054938
8938061591
8938070136
8938076239
8938082098
8938088263
8938095587
8938101874
8938107916
8938116034
8938124335
8938130072
8938140692
8938147711
8938154791
8938159064
8938167669
8938174811
8938183355
8938192328
8938200079
8938207403
8938213995
8938222418
8938229925
8938236212
8938242865
8938249395
8938254583
8938261602
8938267279
8938275274
8938280706
8938288336
8938293524
8938299322
8938306463
8938311285
8938316351
8938323858
8938329717
8938336675
8938341924
8938346746
8938352239
8938359564
8938365118
8938370733
8938377508
8938383489
8938388921
8938395025
8938401983
8938408758
8938414922
8938420293
8938427984
8938433660
8938438299
8938443120
8938449895
8938454961
8938460576
8938467473
8938473211
8938479131
8938483159
8938489629
8938496526
8938501836
8938507146
8938515752
8938520330
8938526555
8938533818
8938538396
8938545476
8938550481
8938557500
8938560796
8938568242
8938574773
8938579228
8938585271
8938590764
8938597966
8938604314
8938609685
8938616277
8938621221
8938627202
8938633916
8938639104
8938646489
8938650823
8938657353
8938664433
8938670903
8938676640
8938682500
8938689214
8938696233
8938700566
8938707280
8938713567
8938719975
8938727421
8938736149
8938742375
8938750737
8938757268
8938763981
8938770512
8938777958
8938783940
8938788212
8938796269
8938804631
8938812077
8938819096
8938825383
8938831852
8938836918
8938842778
8938849553
8938855900
8938860966
8938866703
8938873173
8938878422
8938884892
8938891056
8938896549
8938904545
8938910588
8938916020
8938921696
8938927250
8938932743
8938938725
8938944645
8938949711
8938954594
8938961857
8938967533
8938973637
8938979374
8938985477
8938992741
8938998844
8939005863
8939012089
8939018558
8939025883
8939032535
8939038212
8939046207
8939051395
8939058597
8939062198
8939070255
8939076908
8939082828
8939091312
8939095890
8939102421
8939108890
8939114505
8939118961
8939125553
8939132450
8939138370
8939145084
8939150882
8939155826
8939162479
8939167423
8939174320
8939180240
8939187931
8939194278
8939201602
8939208255
8939215030
8939221195
8939227786
8939234744
8939240726
8939248843
8939254459
8939262088
8939268924
8939276187
8939283023
8939288272
8939294315
8939299625
8939306583
8939312198
8939320682
8939330203
8939337283
8939348453
8939356265
8939363040
8939369937
8939377383
8939383365
8939390628
8939396731
8939403750
8939411380
8939418338
8939424441
8939431338
8939435916
8939443179
8939447757
8939454837
8939461245
8939466128
8939474307
8939479556
8939485171
8939491885
8939497927
8939504336
8939511660
8939516421
8939525759
8939531863
8939538088
8939544863
8939549502
8939556460
8939563662
8939569888
8939575869
8939580569
8939588198
8939595644
8939601809
8939608034
8939613894
8939620852
8939627138
8939632143
8939639284
8939645205
8939652224
8939658938
8939663698
8939669375
8939674624
8939680605
8939687136
8939691408
8939698061
8939704592
8939710085
8939716433
8939723208
8939729067
8939734255
8939740602
8939746706
8939752504
8939758791
8939766115
8939772890
8939777773
8939782106
8939788454
8939796694
8939803285
8939808962
8939814211
8939819765
8939824953
8939830019
8939836122
8939848390
8939853700
8939862917
8939867494
8939876039
8939882143
8939890382
8939898195
8939904542
8939910402
8939916078
8939921144
8939929872
8939938539
8939944704
8939950258
8939955568
8939963319
8939971071
8939976014
8939983705
8939990724
8939995057
8940003175
8940008546
8940016725
8940023622
8940029054
8940036195
8940041993
8940048219
8940055116
8940061952
8940068360
8940075746
8940082093
8940089601
8940094972
8940102357
8940107911
8940114564
8940122010
8940127931
8940135072
8940143433
8940148377
8940156617
8940161744
8940168641
8940174744
8940181275
8940187379
8940193604
8940199464
8940205079
8940212952
8940221070
8940226746
8940234742
8940238892
8940248292
8940254883
8940260987
8940266480
8940271546
8940279786
8940286683
8940293152
8940299012
8940305298
8940312622
8940320435
8940327088
8940332642
8940337891
8940345581
8940352173
8940358460
8940364929
8940371338
8940378235
8940384644
8940390747
8940397705
8940403382
8940412537
8940424500
8940431336
8940436401
8940445496
8940451721
8940458679
8940465881
8940472229
8940476807
8940485046
8940489441
8940498901
8940506226
8940512695
8940518188
8940524719
8940531738
8940538147
8940544006
8940550232
8940557190
8940561950
8940569031
8940575317
8940581970
8940586670
8940593261
8940599975
8940607055
8940612121
8940617859
8940624511
8940630615
8940635803
8940643249
8940648559
8940654846
8940661560
8940667663
8940672851
8940680053
8940685241
8940692626
8940698669
8940704406
8940709472
8940716857
8940722717
8940728332
8940733581
8940740905
8940747009
8940754272
8940758056
8940765807
8940771850
8940777892
8940783752
8940790954
8940795287
8940802062
8940809081
8940815002
8940820006
8940824584
8940831542
8940837523
8940844176
8940848083
8940855468
8940860961
8940865050
8940871947
8940877074
8940884154
8940889525
8940895690
8940899413
8940906798
8940911315
8940916808
8940923522
8940930358
8940936522
8940942076
8940947509
8940952880
8940959410
8940966735
8940972655
8940978209
8940984496
8940990843
8940996886
8941004210
8941010192
8941016783
8941023131
8941029967
8941035765
8941040526
8941046690
8941051634
8941059630
8941065428
8941073424
8941078490
8941085326
8941090941
8941097960
8941104918
8941110655
8941115904
8941121763
8941128050
8941133787
8941139891
8941146849
8941155028
8941160399
8941166502
8941173399
8941178953
8941186277
8941193480
8941200010
8941206114
8941211363
8941218199
8941223448
8941230589
8941235838
8941243895
8941249937
8941256834
8941262937
8941269529
8941275694
8941282530
8941286497
8941295042
8941301878
8941309385
8941316038
8941322508
8941327268
8941334470
8941341001
8941347471
8941354551
8941360899
8941367307
8941373716
8941379881
8941386228
8941393003
8941397764
8941406553
8941412351
8941419492
8941424985
8941432676
8941438352
8941445798
8941451658
8941458616
8941462461
8941470151
8941476072
8941483030
8941487607
8941494870
8941502134
8941508908
8941515012
8941521665
8941528073
8941533628
8941539548
8941547055
8941553586
8941559751
8941565915
8941572751
8941577390
8941584836
8941590390
8941600827
8941608335
8941614743
8941623532
8941628354
8941636228
8941644162
8941651181
8941658200
8941664182
8941669736
8941677792
8941684323
8941691464
8941698727
8941705991
8941711362
8941717770
8941723141
8941731259
8941737424
8941743710
8941749264
8941755734
8941763302
8941768124
8941775754
8941780880
8941786191
8941793393
8941799191
8941806149
8941811947
8941818539
8941824337
8941830990
8941834652
8941842343
8941848996
8941856198
8941859738
8941867733
8941871334
8941879452
8941889767
8941894589
8941903622
8941908749
8941916439
8941922482
8941928768
8941934811
8941941219
8941947384
8941952816
8941958492
8941965572
8941971615
8941977840
8941983822
8941990047
8941996822
8942003353
8942009518
8942015011
8942021053
8942026058
8942033443
8942038570
8942046322
8942050350
8942056209
8942062008
8942067257
8942070980
8942079769
8942086178
8942091427
8942096615
8942101619
8942107113
8942112178
8942117794
8942125362
8942129757
8942136409
8942142513
8942149288
8942154964
8942161678
8942167659
8942173336
8942178096
8942183650
8942188472
8942194515
8942200008
8942208003
8942212764
8942219661
8942226192
8942232051
8942238277
8942244441
8942252193
8942258113
8942264766
8942272456
8942278194
8942284114
8942289851
8942294612
8942301570
8942306819
8942314448
8942320186
8942326045
8942331538
8942336482
8942343440
8942348445
8942354854
8942359370
8942366572
8942372371
8942378779
8942386104
8942392512
8942400874
8942407832
8942414180
8942421321
8942427974
8942433528
8942440913
8942446955
8942454524
8942461116
8942467524
8942472285
8942479853
8942487361
8942493952
8942500056
8942506587
8942512263
8942518672
8942524287
8942529597
8942537226
8942542475
8942548274
8942555354
8942564936
8942570856
8942576838
8942583918
8942590510
8942596979
8942601984
8942610468
8942614069
8942621393
8942627558
8942635554
8942640681
8942646784
8942653132
8942658991
8942665217
8942669672
8942678156
8942683588
8942689814
8942694819
8942701838
8942706903
8942713129
8942720697
8942727228
8942734064
8942738642
8942745844
8942751825
8942756098
8942763544
8942769770
8942777582
8942785028
8942790705
8942797724
8942802545
8942809870
8942815729
8942822748
8942827875
8942834650
8942839777
8942847528
8942853326
8942862482
8942866998
8942877435
8942883417
8942890070
8942898492
8942904047
8942912103
8942918268
8942925409
8942931634
8942936151
8942941949
8942948541
8942954645
8942960443
8942967035
8942973504
8942979730
8942986261
8942992547
8942997491
8943002069
8943010125
8943018304
8943023492
8943030694
8943036859
8943041497
8943048150
8943053643
8943057977
8943066461
8943071404
8943076837
8943081475
8943087823
8943092523
8943098870
8943103936
8943112237
8943116021
8943123101
8943128655
8943135064
8943138482
8943145562
8943151360
8943157464
8943163384
8943168999
8943174737
8943180413
8943184319
8943191155
8943197442
8943204034
8943209771
8943213982
8943224297
8943229729
8943237053
8943242669
8943250786
8943256951
8943261834
8943266594
8943271966
8943277276
8943281792
8943289910
8943293206
8943299492
8943307183
8943311760
8943318840
8943322258
8943331292
8943336907
8943344048
8943350334
8943356011
8943363152
8943371086
8943378105
8943385063
8943391045
8943397576
8943402886
8943415520
8943420708
8943427239
8943432304
8943438957
8943446159
8943449394
8943457878
8943464531
8943467888
8943476067
8943483452
8943489311
8943495476
8943503105
8943507194
8943514335
8943520256
8943528496
8943534904
8943541801
8943547966
8943554313
8943560234
8943566704
8943573356
8943579094
8943584160
8943591362
8943598686
8943604606
8943611991
8943619011
8943625846
8943631218
8943638725
8943644218
8943651969
8943658317
8943664726
8943670768
8943677238
8943683341
8943689262
8943696891
8943701896
8943707633
8943716911
8943721488
8943729179
8943735099
8943741386
8943746879
8943754142
8943761344
8943766898
8943774955
8943778434
8943785941
8943792838
8943799003
8943805228
8943811576
8943817802
8943824393
8943830619
8943835990
8943844108
8943850394
8943857169
8943864005
8943870170
8943875052
8943881461
8943887626
8943894706
8943904898
8943910331
8943917289
8943924430
8943931021
8943938224
8943945548
8943953055
8943963553
8943969046
8943974600
8943981986
8943990714
8943996451
8944002921
8944011710
8944018057
8944024466
8944030631
8944037039
8944043387
8944048148
8944054556
8944061942
8944068350
8944074759
8944081229
8944086050
8944092093
8944099722
8944104300
8944112173
8944118643
8944125235
8944132437
8944137198
8944144339
8944152334
8944160940
8944166617
8944174429
8944179373
8944185720
8944191275
8944198599
8944204641
8944213247
8944219351
8944223867
8944230642
8944236257
8944241690
8944246389
8944251760
8944260000
8944265554
8944271108
8944276785
8944282461
8944288381
8944294058
8944301199
8944306936
8944312551
8944318044
8944323721
8944330068
8944335256
8944341665
8944347585
8944354116
8944359365
8944364187
8944370840
8944375845
8944382619
8944387929
8944394826
8944400442
8944406545
8944409963
8944417165
8944422597
8944428884
8944434682
8944440481
8944447133
8944452627
8944458364
8944464711
8944470510
8944481191
8944486989
8944492421
8944498220
8944504750
8944510427
8944515126
8944522512
8944529042
8944534536
8944540883
8944546498
8944552297
8944558034
8944564870
8944571706
8944578115
8944583669
8944588002
8944594472
8944599172
8944605946
8944609364
8944616017
8944620961
8944626820
8944632253
8944637746
8944643605
8944649709
8944655629
8944661488
8944667043
8944671681
8944678151
8944683278
8944690053
8944695241
8944702382
8944708241
8944715504
8944720997
8944726552
8944732411
8944738820
8944743519
8944749440
8944755116
8944759694
8944767201
8944772389
8944779530
8944784840
8944793446
8944797596
8944805104
8944811756
8944818653
8944824513
8944829457
8944835560
8944841908
8944847828
8944852650
8944858753
8944864063
8944872059
8944877613
8944884388
8944889454
8944896900
8944902516
8944908802
8944913014
8944920521
8944926136
8944932728
8944939320
8944945179
8944949329
8944956470
8944964100
8944970753
8944976551
8944980946
8944988026
8944992603
8944999195
8945003895
8945012501
8945017872
8945024647
8945029896
8945036121
8945042957
8945048145
8945053638
8945061756
8945068592
8945074573
8945080494
8945086597
8945091480
8945098743
8945107166
8945113208
8945119373
8945126087
8945132801
8945138050
8945144763
8945153003
8945159290
8945165393
8945171375
8945176990
8945182849
8945188648
8945194629
8945203845
8945208972
8945215747
8945222888
8945228992
8945236194
8945241870
8945248401
8945255359
8945262134
8945266711
8945274951
8945281787
8945287280
8945296069
8945300464
8945310046
8945315967
8945321094
8945329699
8945337207
8945344104
8945349902
8945356860
8945363513
8945369250
8945378344
8945385302
8945391284
8945397631
8945403796
8945408129
8945415454
8945421313
8945427417
8945434985
8945441760
8945447863
8945452929
8945458911
8945465380
