9317921336
9317926219
9317931102
9317935557
9317939891
9317945323
9317949595
9317955149
9317960337
9317964976
9317969981
9317975352
9317979991
9317985545
9317990122
9317995860
9318000559
9318006114
9318010996
9318016795
9318021555
9318026255
9318032420
9318037364
9318041880
9318046458
9318050547
9318056590
9318061961
9318067210
9318071848
9318077464
9318083567
9318088694
9318096384
9318102427
9318108897
9318115671
9318121165
9318128245
9318135325
9318141672
9318148997
9318155649
9318162485
9318167978
9318175669
9318184641
9318191355
9318197031
9318202829
9318209787
9318217112
9318222300
9318230906
9318238535
9318243967
9318250742
9318257883
9318265390
9318274607
9318280588
9318287302
9318294443
9318302255
9318310129
9318319223
9318325937
9318333566
9318340646
9318349069
9318355539
9318362009
9318370859
9318378915
9318385507
9318393381
9318398630
9318407297
9318417245
9318423837
9318432016
9318439584
9318447885
9318453012
9318462716
9318470407
9318478158
9318485910
9318493417
9318500802
9318507211
9318515329
9318521493
9318531076
9318539132
9318546517
9318552865
9318560739
9318567208
9318574472
9318582223
9318590035
9318596810
9318604379
9318612191
9318617623
9318625497
9318634103
9318643502
9318649300
9318657479
9318663766
9318671334
9318677132
9318685555
9318694710
9318701974
9318708504
9318716378
9318722726
9318731026
9318738717
9318747140
9318753975
9318761788
9318767647
9318775826
9318783761
9318792000
9318799874
9318807625
9318812996
9318820931
9318828377
9318835335
9318843148
9318851387
9318858406
9318865975
9318872933
9318880135
9318886727
9318893868
9318902535
9318909371
9318917122
9318922310
9318929268
9318936714
9318945137
9318951912
9318960701
9318966682
9318973518
9318981819
9318988411
9318997505
9319004402
9319010628
9319018745
9319025825
9319033089
9319038887
9319046760
9319056160
9319063423
9319069893
9319076790
9319085090
9319094307
9319103584
9319110115
9319118476
9319126106
9319133552
9319138923
9319148750
9319156318
9319163459
9319170783
9319177680
9319185005
9319191474
9319200263
9319206977
9319213630
9319221870
9319229072
9319235786
9319243720
9319250434
9319258308
9319265693
9319271857
9319281989
9319288520
9319295539
9319301643
9319310981
9319317878
9319326423
9319332709
9319340827
9319349128
9319358649
9319366645
9319374579
9319382880
9319388434
9319396674
9319404059
9319412726
9319420844
9319429572
9319440070
9319448554
9319455939
9319465216
9319470587
9319479132
9319488043
9319497077
9319505377
9319512946
9319518744
9319527106
9319534857
9319543219
9319549933
9319557562
9319566412
9319573370
9319581793
9319588385
9319598517
9319606329
9319614203
9319621222
9319629706
9319637335
9319644964
9319652167
9319658941
9319667059
9319675238
9319682928
9319690374
9319698187
9319705633
9319715094
9319722235
9319728765
9319737982
9319745428
9319752386
9319759588
9319767340
9319776129
9319785894
9319793463
9319801031
9319808050
9319815252
9319822027
9319830328
9319837530
9319844427
9319851446
9319859991
9319869695
9319880071
9319888250
9319895940
9319903997
9319910528
9319918157
9319926580
9319934453
9319942205
9319950322
9319957647
9319965032
9319972417
9319981572
9319988652
9319997380
9320003972
9320010930
9320018438
9320024419
9320031865
9320039189
9320046514
9320054570
9320060430
9320070378
9320075566
9320084661
9320092656
9320099187
9320106694
9320113835
9320118962
9320130071
9320138310
9320144841
9320153447
9320158940
9320167668
9320175725
9320182622
9320191289
9320197819
9320203862
9320213139
9320220524
9320229802
9320237797
9320245183
9320252263
9320257756
9320265202
9320272404
9320280400
9320296147
9320302861
9320311161
9320317387
9320322087
9320330265
9320337406
9320344853
9320352665
9320359196
9320366398
9320373478
9320380924
9320388737
9320397343
9320403690
9320410343
9320417729
9320424198
9320432133
9320439091
9320445316
9320451298
9320458805
9320465153
9320474308
9320483158
9320489628
9320496403
9320503055
9320511234
9320516666
9320523014
9320530582
9320536991
9320542362
9320548588
9320554874
9320561222
9320567936
9320574161
9320583500
9320589481
9320594669
9320602604
9320608341
9320614566
9320620121
9320626468
9320635013
9320642704
9320648868
9320657657
9320663150
9320669925
9320677860
9320684879
9320691715
9320698673
9320706424
9320715701
9320722904
9320731570
9320737735
9320746402
9320751468
9320760806
9320767520
9320774112
9320780948
9320788089
9320794925
9320802371
9320810855
9320820132
9320825992
9320833011
9320839175
9320846011
9320851504
9320859195
9320867495
9320874698
9320881900
9320888858
9320894290
9320902041
9320907534
9320914065
9320920962
9320928591
9320937625
9320942874
9320950869
9320957766
9320967288
9320972781
9320981631
9320987490
9320995913
9321003481
9321008975
9321017397
9321024661
9321031252
9321038821
9321044314
9321053347
9321061770
9321067934
9321077517
9321083498
9321092226
9321098696
9321108401
9321114626
9321120791
9321126284
9321132204
9321136843
9321144533
9321151125
9321158510
9321162966
9321171145
9321177187
9321182680
9321189150
9321196901
9321203127
9321210085
9321214601
9321221132
9321227724
9321232119
9321239321
9321244203
9321251161
9321257753
9321263674
9321270632
9321278017
9321283876
9321289369
9321295900
9321302675
9321307253
9321312502
9321317568
9321323366
9321329164
9321333681
9321340578
9321346254
9321351198
9321355959
9321361147
9321366823
9321371767
9321379335
9321384523
9321390016
9321395753
9321400575
9321406373
9321410890
9321417848
9321424501
9321430055
9321435060
9321438905
9321445375
9321451234
9321456239
9321461671
9321467103
9321472474
9321478639
9321483705
9321488160
9321492860
9321499635
9321505372
9321512025
9321517457
9321523255
9321528871
9321535462
9321541932
9321547853
9321554017
9321561524
9321566834
9321573487
9321578248
9321583375
9321590333
9321595582
9321602113
9321607911
9321611939
9321619569
9321623597
9321631104
9321636964
9321642823
9321648255
9321655824
9321661500
9321668763
9321673646
9321679810
9321687440
9321692933
9321699036
9321705689
9321710755
9321717408
9321723145
9321729737
9321737183
9321744690
9321750611
9321756958
9321763001
9321768860
9321775208
9321780396
9321788025
9321793030
9321800293
9321806580
9321812378
9321818055
9321825623
9321832459
9321838196
9321843872
9321851197
9321855408
9321862610
9321867249
9321874878
9321880554
9321887634
9321892700
9321899292
9321905029
9321910645
9321916504
9321924378
9321932007
9321937195
9321944397
9321949036
9321956238
9321965332
9321970947
9321977051
9321983398
9321988525
9321995788
9322001037
9322008301
9322013672
9322021911
9322027405
9322034790
9322040161
9322046753
9322050964
9322057617
9322064392
9322069091
9322076599
9322081787
9322088379
9322094482
9322100402
9322106384
9322112854
9322119384
9322125122
9322131469
9322138549
9322145263
9322151061
9322157775
9322165710
9322173400
9322178039
9322186828
9322191589
9322197448
9322204284
9322211913
9322219482
9322225402
9322230529
9322237914
9322243468
9322250365
9322256957
9322263366
9322272094
9322276855
9322284179
9322288512
9322295409
9322299743
9322305846
9322313231
9322319152
9322325255
9322331298
9322336852
9322342894
9322349914
9322356444
9322364074
9322369872
9322375670
9322382506
9322387938
9322394347
9322399962
9322405700
9322413329
9322417784
9322423888
9322429686
9322435546
9322441344
9322445494
9322452696
9322459899
9322464720
9322470824
9322476866
9322482237
9322486144
9322494261
9322500243
9322506957
9322511717
9322517638
9322522276
9322528197
9322533873
9322539305
9322544676
9322549010
9322555357
9322560912
9322565977
9322571593
9322578245
9322584959
9322589842
9322595396
9322599974
9322606016
9322610533
9322616209
9322621092
9322627623
9322632078
9322639158
9322643248
9322649351
9322655333
9322660399
9322666502
9322673277
9322677671
9322684019
9322689451
9322694212
9322699034
9322706175
9322710997
9322717833
9322726011
9322732664
9322737913
9322743528
9322756834
9322764768
9322769651
9322776243
9322781187
9322786131
9322792845
9322800291
9322804929
9322811155
9322816892
9322822263
9322828123
9322833372
9322840147
9322848325
9322854612
9322860044
9322867063
9322872434
9322877378
9322886228
9322893369
9322901548
9322908201
9322913267
9322921018
9322925657
9322933652
9322938596
9322946225
9322950681
9322957151
9322964170
9322969785
9322974668
9322982175
9322988218
9322994443
9323001950
9323007871
9323014402
9323019529
9323026059
9323031797
9323038205
9323045468
9323050412
9323057065
9323062558
9323069211
9323073850
9323081357
9323088742
9323093564
9323101071
9323105588
9323112546
9323118588
9323124448
9323131039
9323138242
9323143857
9323149838
9323156918
9323162289
9323168088
9323175656
9323181943
9323188779
9323193478
9323200131
9323205136
9323211789
9323216794
9323224057
9323231503
9323236752
9323245114
9323252194
9323258053
9323265194
9323272519
9323277584
9323284726
9323290402
9323297543
9323304013
9323312069
9323319638
9323324826
9323333309
9323339718
9323345516
9323350582
9323357846
9323363766
9323369869
9323375302
9323382931
9323387509
9323394894
9323399899
9323407101
9323413265
9323419125
9323426693
9323432125
9323437557
9323444210
9323450191
9323455502
9323461239
9323468197
9323474972
9323479610
9323485165
9323491939
9323498287
9323504696
9323511349
9323520443
9323526729
9323533016
9323538570
9323544430
9323550228
9323555416
9323561031
9323568599
9323574093
9323580257
9323585201
9323591487
9323596492
9323601986
9323608760
9323615169
9323621517
9323628536
9323634517
9323640315
9323647396
9323655147
9323660213
9323666744
9323671565
9323678157
9323685054
9323688838
9323695003
9323701412
9323706600
9323712764
9323718013
9323723079
9323729549
9323734004
9323739314
9323747371
9323754146
9323757930
9323763911
9323770442
9323774531
9323780513
9323786738
9323792537
9323798518
9323803645
9323809016
9323814082
9323819636
9323824885
9323832393
9323837398
9323842647
9323848506
9323852961
9323858760
9323864375
9323871516
9323876399
9323883845
9323890254
9323897212
9323902095
9323907832
9323913386
9323920344
9323926448
9323933283
9323938899
9323945796
9323951045
9323958430
9323965144
9323969477
9323975337
9323982417
9323987666
9323992732
9323999568
9324005366
9324010737
9324017146
9324023371
9324027399
9324033503
9324040644
9324045649
9324054316
9324061640
9324067560
9324075190
9324082270
9324086664
9324093622
9324101130
9324108210
9324114374
9324120661
9324127009
9324135065
9324141352
9324148554
9324155817
9324160761
9324168024
9324174250
9324181696
9324187738
9324193598
9324200617
9324206781
9324211847
9324217585
9324224604
9324229608
9324236811
9324243402
9324249750
9324255548
9324260248
9324265924
9324272699
9324277704
9324284662
9324291559
9324298700
9324304559
9324309076
9324315485
9324319940
9324327264
9324335016
9324340997
9324348505
9324354364
9324359796
9324365655
9324371454
9324379327
9324386041
9324391534
9324396478
9324403619
9324409356
9324416009
9324421075
9324426751
9324433221
9324440240
9324445245
9324452020
9324457513
9324465814
9324474237
9324479913
9324488336
9324493951
9324501336
9324506402
9324513604
9324519403
9324525079
9324532342
9324539300
9324543328
9324549981
9324555230
9324561944
9324567437
9324575250
9324582391
9324587212
9324594170
9324600152
9324605889
9324612115
9324617730
9324625054
9324631158
9324637933
9324643670
9324650140
9324656487
9324662530
9324670342
9324676751
9324684441
9324690117
9324695305
9324700616
9324707207
9324712945
9324719597
9324725762
9324730217
9324735711
9324742058
9324746880
9324753167
9324759758
9324766838
9324772698
9324782158
9324789238
9324794793
9324800530
9324806816
9324812737
9324820244
9324826226
9324832146
9324838677
9324844109
9324848381
9324855156
9324861748
9324867546
9324873894
9324879204
9324884514
9324889824
9324897270
9324902580
9324908806
9324914726
9324920036
9324925591
9324930534
9324936699
9324941704
9324947014
9324953850
9324958244
9324964531
9324969231
9324975151
9324980522
9324987602
9324993767
9324997978
9325003593
9325010185
9325015251
9325020683
9325025993
9325034782
9325040275
9325046379
9325053337
9325058525
9325064445
9325069816
9325075676
9325082206
9325086723
9325093376
9325098747
9325104911
9325109916
9325116264
9325122367
9325129264
9325135063
9325142448
9325147819
9325154106
9325161613
9325169242
9325173881
9325180961
9325185294
9325194022
9325196891
9325206046
9325214042
9325219535
9325225089
9325232169
9325239432
9325245048
9325250602
9325255118
9325263175
9325268912
9325277213
9325282279
9325288993
9325294303
9325300284
9325306632
9325313834
9325320426
9325326468
9325330863
9325337638
9325343131
9325350150
9325357291
9325362052
9325368583
9325375296
9325381034
9325385489
9325392630
9325400138
9325406058
9325412711
9325417960
9325423209
9325430533
9325436698
9325442679
9325448905
9325455863
9325461478
9325466788
9325472464
9325479056
9325484793
9325492178
9325498709
9325505423
9325512320
9325517020
9325523184
9325529959
9325535696
9325543570
9325549612
9325554922
9325562308
9325567313
9325573233
9325579886
9325585989
9325593558
9325598929
9325604239
9325611380
9325615896
9325622183
9325628286
9325637137
9325643484
9325650747
9325656424
9325662527
9325666983
9325673574
9325678946
9325686575
9325693411
9325700979
9325707205
9325713491
9325721426
9325727957
9325735220
9325740286
9325747427
9325753897
9325759878
9325764517
9325771169
9325775442
9325783865
9325789907
9325796438
9325804250
9325811147
9325820119
9325825796
9325834707
9325840871
9325849172
9325855581
9325861684
9325867422
9325871755
9325879934
9325885488
9325892934
9325898366
9325904043
9325908864
9325915883
9325921926
9325927236
9325933645
9325940419
9325945668
9325950734
9325956594
9325962880
9325967885
9325975576
9325982900
9325987538
9325994435
9325999074
9326005056
9326010793
9326016225
9326022634
9326028371
9326034841
9326040273
9326044545
9326050771
9326057240
9326062673
9326068837
9326076222
9326080495
9326086781
9326091481
9326097707
9326102712
9326107961
9326115590
9326120045
9326126149
9326130055
9326135976
9326141103
9326146535
9326154164
9326159535
9326163624
9326170094
9326175709
9326180226
9326186207
9326191334
9326196766
9326204091
9326209462
9326216054
9326222096
9326227284
9326235585
9326240406
9326246388
9326250905
9326256825
9326263478
9326267689
9326274281
9326280323
9326287526
9326291859
9326298756
9326304188
9326310414
9326316212
9326322743
9326327198
9326333485
9326340077
9326346668
9326352040
9326357227
9326362476
9326369862
9326378040
9326383839
9326389149
9326396046
9326402882
9326408436
9326412769
9326420216
9326426075
9326431690
9326438221
9326444996
9326451588
9326456531
9326462635
9326469593
9326475635
9326481678
9326488331
9326492969
9326499561
9326504871
9326513477
9326519275
9326526661
9326532642
9326538013
9326543018
9326550708
9326557666
9326563221
9326569568
9326576282
9326580860
9326587574
9326592578
9326600391
9326605701
9326612903
9326618457
9326625171
9326632129
9326638172
9326644153
9326649097
9326657153
9326664111
9326670642
9326678699
9326684375
9326691516
9326699573
9326704700
9326711902
9326717883
9326725269
9326732227
9326736987
9326744800
9326749866
9326757739
9326762683
9326769275
9326775989
9326781848
9326787768
9326795947
9326804492
9326811389
9326817187
9326824450
9326829028
9326836169
9326841113
9326847033
9326853686
9326860888
9326865649
9326872302
9326878527
9326885119
9326889697
9326896716
9326903430
9326908374
9326915515
9326921679
9326927722
9326932360
9326939623
9326946948
9326952746
9326960314
9326966113
9326972888
9326980395
9326987231
9326992724
9327002856
9327010058
9327015246
9327020678
9327027880
9327032519
9327040575
9327046252
9327053210
9327058764
9327065417
9327071947
9327076403
9327083483
9327089831
9327097094
9327102282
9327107897
9327114367
9327119982
9327124865
9327132067
9327138903
9327144335
9327150682
9327156115
9327161974
9327168810
9327173632
9327180468
9327188097
9327192980
9327200060
9327205431
9327212389
9327218248
9327223986
9327231798
9327237963
9327243273
9327249132
9327253832
9327259935
9327264147
9327271044
9327278001
9327283922
9327290636
9327295702
9327303270
9327308885
9327313341
9327321214
9327325609
9327332017
9327336656
9327343187
9327348253
9327354722
9327360765
9327367479
9327373094
9327378892
9327384569
9327387742
9327396470
9327402025
9327408433
9327413011
9327418931
9327423448
9327429307
9327435472
9327440721
9327447618
9327452317
9327458421
9327464830
9327469957
9327475816
9327482408
9327488633
9327494126
9327499803
9327505967
9327510667
9327516892
9327521897
9327528611
9327536057
9327543199
9327549485
9327556626
9327564256
9327571458
9327575974
9327583848
9327589341
9327596360
9327602097
9327608567
9327614182
9327621201
9327627610
9327632371
9327639207
9327643601
9327650986
9327657578
9327663438
9327669785
9327677598
9327682541
9327689805
9327695725
9327701035
9327707749
9327713364
9327720017
9327726975
9327733201
9327738327
9327744919
9327750168
9327755783
9327762864
9327770005
9327776230
9327780686
9327787461
9327794297
9327798752
9327804123
9327810959
9327817429
9327822129
9327830795
9327837265
9327843064
9327849411
9327855698
9327863083
9327870041
9327875656
9327880783
9327886643
9327893234
9327898972
9327904587
9327912155
9327918259
9327924850
9327929245
9327935715
9327943344
9327949692
9327957199
9327963425
9327970199
9327977218
9327981735
9327990402
9327996811
9328003769
9328009689
9328016098
9328021774
9328027816
9328033432
9328039718
9328045822
9328052230
9328058151
9328063339
9328070541
9328075729
9328082992
9328087692
9328094345
9328101425
9328108505
9328113204
9328119796
9328124801
9328132186
9328137985
9328145980
9328153793
9328160995
9328169051
9328174117
9328181869
9328188277
9328196456
9328201888
9328208785
9328215560
9328220077
9328226668
9328233382
9328239120
9328246139
9328252364
9328258163
9328263839
9328268661
9328275558
9328280868
9328286544
9328295333
9328303878
9328310531
9328318587
9328326888
9328333968
9328341597
9328348494
9328354049
9328360823
9328366500
9328372725
9328378279
9328383834
9328390609
9328396468
9328402083
9328408492
9328413436
9328419661
9328425521
9328431075
9328437056
9328443465
9328448653
9328454390
9328459761
9328465804
9328471419
9328476729
9328482039
9328488081
9328493086
9328499251
9328504378
9328510664
9328517561
9328523909
9328528242
9328535384
9328542464
9328548201
9328553633
9328558760
9328565413
9328571943
9328576643
9328582380
9328586165
9328592085
9328597517
9328604048
9328609663
9328616072
9328621077
9328625166
9328632429
9328637800
9328642988
9328648237
9328655012
9328659101
9328665510
9328669966
9328675825
9328680708
9328688154
9328694746
9328701826
9328707746
9328712812
9328720869
9328725630
9328732649
9328738691
9328745588
9328749738
9328756513
9328762312
9328767072
9328773054
9328778059
9328785993
9328790754
9328797041
9328803266
9328808515
9328812727
9328818891
9328826154
9328832014
9328837507
9328844831
9328849409
9328856672
9328861310
9328868879
9328876020
9328881696
9328887250
9328894025
9328899213
9328905988
9328911725
9328917463
9328923627
9328930768
9328937543
9328942304
9328948102
9328954816
9328959943
9328967145
9328974897
9328980451
9328988202
9328992780
9328998639
9329004682
9329011090
9329018415
9329024457
9329030316
9329036054
9329042767
9329048566
9329054791
9329061017
9329066571
9329074445
9329079999
9329086652
9329090680
9329097699
9329103864
9329111981
9329117352
9329125470
9329132062
9329136639
9329144208
9329150250
9329157941
9329163373
9329170758
9329176434
9329183270
9329188458
9329195233
9329202069
9329207013
9329214093
9329222027
9329228558
9329235028
9329242901
9329248211
9329255719
9329262371
9329268597
9329274578
9329279278
9329288433
9329292218
9329302288
9329309674
9329317364
9329324749
9329331951
9329337628
9329342938
9329350506
9329357647
9329363323
9329370281
9329375591
9329382244
9329387554
9329394024
9329401287
9329407085
9329414226
9329418682
9329425518
9329432049
9329438091
9329444134
9329451214
9329456707
9329463116
9329468609
9329474407
9329479900
9329486065
9329491436
9329498150
9329505352
9329511394
9329516460
9329522930
9329527996
9329532940
9329542705
9329548381
9329555523
9329560466
9329566875
9329571697
9329578044
9329585002
9329590129
9329598064
9329603679
9329611125
9329616435
9329624065
9329629375
9329636516
9329642558
9329648906
9329653056
9329658916
9329663738
9329669536
9329674846
9329682536
9329687968
9329694865
9329700420
9329705913
9329712932
9329718791
9329725017
9329731120
9329735637
9329741435
9329747783
9329753032
9329758952
9329764018
9329771647
9329776652
9329782695
9329787333
9329792582
9329798564
9329803874
9329810405
9329816874
9329821452
9329827494
9329833171
9329838481
9329843974
9329849162
9329855265
9329862529
9329868022
9329874552
9329880473
9329887248
9329891947
9329899638
9329906840
9329912150
9329919169
9329924540
9329931803
9329936869
9329943705
9329950297
9329956645
9329962199
9329967753
9329974284
9329979838
9329986918
9329993449
9329999918
9330005350
9330009989
9330016764
9330021891
9330027567
9330033549
9330041239
9330046366
9330053690
9330058573
9330064371
9330070414
9330078348
9330083658
9330090983
9330095560
9330102884
9330107828
9330113871
9330119242
9330126688
9330132120
9330137369
9330144205
9330149332
9330155313
9330160562
9330167215
9330172892
9330179056
9330185953
9330192362
9330197611
9330203897
9330210611
9330216409
9330222208
9330228678
9330235574
9330240152
9330246927
9330251566
9330258341
9330264566
9330273477
9330281595
9330289163
9330295389
9330301553
9330309366
9330316202
9330323953
9330329568
9330336465
9330343362
9330350381
9330356241
9330361307
9330367166
9330372415
9330381326
9330386575
9330392251
9330398660
9330404336
9330409646
9330417459
9330424356
9330430154
9330436013
9330442727
9330448587
9330455606
9330460000
9330467324
9330475930
9330482705
9330489175
9330496499
9330504312
9330510049
9330517434
9330523660
9330529275
9330535256
9330541848
9330546121
9330552773
9330557900
9330564980
9330570718
9330578225
9330583901
9330589822
9330595742
9330600320
9330608254
9330613015
9330619179
9330625649
9330631386
9330637734
9330643349
9330647683
9330655007
9330660561
9330667946
9330673134
9330678933
9330683938
9330690774
9330693642
9330701943
9330708291
9330713479
9330718178
9330725014
9330729348
9330736245
9330741860
9330747780
9330754738
9330761635
9330765602
9330772072
9330776955
9330783364
9330789040
9330795693
9330800270
9330807228
9330813881
9330818276
9330825417
9330829811
9330836708
9330841469
9330849342
9330854591
9330862770
9330870216
9330876686
9330884254
9330888466
9330896339
9330901527
9330908241
9330913490
9330918007
9330923744
9330930641
9330937172
9330941322
9330946998
9330952553
9330957619
9330963600
9330968544
9330975502
9330982460
9330987343
9330993324
9330998451
9331002968
9331007972
9331014259
9331021644
9331026588
9331032814
9331039650
9331045143
9331050819
9331056434
9331062599
9331069618
9331074684
9331080726
9331086097
9331090980
9331096046
9331102394
9331109657
9331114173
9331120277
9331126685
9331131934
9331138038
9331143470
9331150184
9331157142
9331162391
9331168555
9331173438
9331179542
9331183692
9331190101
9331197669
9331202308
9331208778
9331213477
9331220313
9331224891
9331231910
9331237098
9331245093
9331252540
9331259376
9331264991
9331272132
9331276893
9331282874
9331290931
9331296607
9331303016
9331308204
9331314002
9331320655
9331325660
9331333350
9331339209
9331346228
9331350684
9331358130
9331362952
9331369605
9331376380
9331383582
9331390113
9331394995
9331401282
9331407202
9331413916
9331418372
9331426245
9331434119
9331441260
9331447546
9331453650
9331459448
9331465369
9331471167
9331478552
9331483618
9331491370
9331497046
9331504004
9331508276
9331515539
9331521521
9331528662
9331533606
9331540930
9331545691
9331552344
9331558447
9331564306
9331571142
9331576758
9331584875
9331590490
9331598303
9331604834
9331612707
9331618383
9331627234
9331633215
9331640417
9331649267
9331655554
9331661291
9331668066
9331673681
9331680822
9331687780
9331692907
9331699621
9331705175
9331711950
9331716406
9331723425
9331728796
9331735998
9331741003
9331747717
9331753637
9331759618
9331765783
9331770727
9331779028
9331784521
9331791662
9331794591
9331802404
9331807470
9331814855
9331823156
9331829015
9331835729
9331840978
9331846288
9331852147
9331857641
9331865087
9331870641
9331877599
9331883519
9331888585
9331893529
9331899877
9331905065
9331912633
9331919164
9331925267
9331931066
9331938390
9331946813
9331949803
9331957372
9331964879
9331970739
9331973912
9331982213
9331987584
9331993077
9331998143
9332005651
9332013219
9332018468
9332024205
9332032140
9332039281
9332044103
9332052464
9332058080
9332064671
9332069066
9332075291
9332082005
9332086095
9332091954
9332099705
9332105321
9332110631
9332116002
9332120213
9332126683
9332131810
9332138585
9332143712
9332149998
9332154027
9332160008
9332166112
9332171544
9332177037
9332183018
9332188633
9332195103
9332202488
9332209385
9332216343
9332223607
9332231419
9332236424
9332241978
9332248326
9332253514
9332259434
9332265538
9332271702
9332277256
9332284519
9332290379
9332297276
9332304051
9332308445
9332315037
9332322239
9332327610
9332334263
9332339146
9332344395
9332349644
9332356541
9332363377
9332368809
9332374241
9332380344
9332384495
9332390659
9332396885
9332401707
9332408909
9332416172
9332424229
9332430637
9332438389
9332444004
9332452183
9332458286
9332465610
9332472812
9332479343
9332484165
9332491489
9332497104
9332504734
9332511325
9332517734
9332525547
9332532383
9332538852
9332544956
9332553134
9332559360
9332566440
9332571445
9332578220
9332584384
9332589694
9332595981
9332604221
9332611606
9332617038
9332623996
9332628391
9332634860
9332641635
9332647373
9332652988
9332660373
9332667087
9332672763
9332679050
9332684970
9332690341
9332696323
9332704013
9332709506
9332714877
9332722140
9332728305
9332733615
9332740573
9332746493
9332752536
9332759555
9332764926
9332771640
9332776095
9332782931
9332788363
9332795565
9332803195
9332808871
9332816195
9332822360
9332828097
9332834994
9332840670
9332847689
9332853854
9332858981
9332866305
9332871676
9332877474
9332884249
9332890475
9332896029
9332903597
9332909518
9332914828
9332921359
9332926547
9332931979
9332939730
9332945223
9332952425
9332957919
9332964510
9332970004
9332976656
9332981112
9332989230
9332996981
9333001620
9333007784
9333013827
9333019930
9333024447
9333031527
9333038363
9333045016
9333049410
9333056612
9333063448
9333069063
9333073580
9333080843
9333086519
9333093905
9333099398
9333104403
9333109835
9333116732
9333122042
9333127291
9333133394
9333140169
9333145113
9333151644
9333156649
9333163057
9333168001
9333175142
9333181978
9333188326
9333194429
9333199861
9333207063
9333213655
9333219759
9333225984
9333233125
9333238130
9333243379
9333248689
9333253633
9333260225
9333265108
9333271516
9333277803
9333281831
9333288972
9333294710
9333301057
9333306123
9333312105
9333317842
9333323701
9333328828
9333333650
9333340059
9333344636
9333351228
9333356355
9333362703
9333369050
9333373201
9333380098
9333384797
9333393281
9333399324
9333406160
9333410310
9333416719
9333422151
9333426850
9333432588
9333438752
9333443696
9333450349
9333456575
9333460908
9333467012
9333471406
9333479707
9333484773
9333491731
9333497407
9333502107
9333506867
9333513398
9333518830
9333525300
9333530732
9333537507
9333543366
9333547517
9333554170
9333558503
9333566254
9333572663
9333578217
9333584809
9333589631
9333594819
9333602143
9333607819
9333614045
9333621430
9333628571
9333633210
9333640168
9333645783
9333652741
9333657868
9333665009
9333672211
9333676972
9333686066
9333689728
9333699860
9333706818
9333714386
9333718598
9333725861
9333733612
9333740082
9333744660
9333751862
9333756745
9333764618
9333772675
9333778229
9333787140
9333792145
9333797943
9333804718
9333810700
9333818207
9333824432
9333829681
9333837189
9333842133
9333847748
9333854034
9333860016
9333867035
9333872467
9333878998
9333884125
9333890900
9333896088
9333902435
9333908295
9333916473
9333923004
9333927765
9333934540
9333940643
9333947235
9333951813
9333960235
9333967987
9333973358
9333981842
9333987762
9333994903
9334000335
9334006256
9334013702
9334019378
9334026336
9334031646
9334038299
9334043609
9334049407
9334057281
9334062957
9334070098
9334076690
9334081207
9334087066
9334093658
9334098419
9334105682
9334112823
9334118804
9334124481
9334130706
9334136382
9334140838
9334149139
9334156158
9334162200
9334168182
9334174041
9334179107
9334186309
9334191619
9334197784
9334203338
9334210906
9334216277
9334223052
9334228606
9334233611
9334240447
9334246001
9334252654
9334259551
9334264434
9334270904
9334276824
9334282683
9334287322
9334294524
9334301055
9334305877
9334313323
9334318084
9334324004
9334330352
9334335845
9334340911
9334348357
9334353728
9334361052
9334366362
9334372161
9334378935
9334384246
9334391020
9334396514
9334402007
9334408476
9334414336
9334419463
9334424834
9334433074
9334439177
9334443694
9334450652
9334455534
9334460661
9334464629
9334471098
9334479338
9334484465
9334489348
9334495695
9334500639
9334506438
9334511381
9334517485
9334522917
9334529448
9334535063
9334542082
9334548124
9334554106
9334562040
9334568205
9334574370
9334579069
9334585417
9334592131
9334597807
9334603178
9334609770
9334615019
9334619963
9334626005
9334630827
9334636747
9334641508
9334650114
9334655607
9334662321
9334668302
9334673368
9334680265
9334687345
9334693876
9334700956
9334706022
9334712614
9334718046
9334723112
9334727812
9334734586
9334740202
9334746732
9334750883
9334757047
9334761869
9334767912
9334773222
9334779569
9334786893
9334792448
9334798246
9334804960
9334810697
9334815641
9334821256
9334828885
9334835050
9334841154
9334846952
9334853483
9334859281
9334865140
9334871244
9334878080
9334884366
9334889982
9334897245
9334902372
9334908170
9334913846
9334921903
9334928128
9334936063
9334941800
9334948758
9334954251
9334961270
9334965665
9334972867
9334979947
9334986234
9334991971
9334997952
9335003873
9335008573
9335015469
9335021939
9335029202
9335034757
9335040799
9335047696
9335053799
9335058682
9335066129
9335072903
9335078519
9335084378
9335091092
9335096768
9335102566
9335109280
9335117337
9335122525
9335129666
9335137478
9335144253
9335149930
9335155240
9335162686
9335168973
9335174649
9335181790
9335187161
9335193875
9335199002
9335204983
9335212429
9335219448
9335225674
9335231411
9335237393
9335243740
9335248257
9335254666
9335261868
9335267544
9335274136
9335281521
9335287319
9335294216
9335299343
9335306667
9335314541
9335320034
9335325832
9335332241
9335337978
9335344570
9335350430
9335354153
9335365078
9335371181
9335377407
9335382778
9335390102
9335395107
9335402859
9335409511
9335415188
9335421657
9335426906
9335433071
9335439541
9335444423
9335451198
9335457851
9335464138
9335469814
9335474270
9335480434
9335486355
9335492153
9335499111
9335505458
9335510830
9335517971
9335524318
9335532863
9335539211
9335545131
9335550991
9335557521
9335564052
9335570888
9335576503
9335582424
9335588100
9335595424
9335601344
9335607631
9335613735
9335619045
9335625697
9335630092
9335638881
9335644374
9335650111
9335655299
9335660548
9335666164
9335670070
9335676417
9335682582
9335689296
9335694179
9335701198
9335706447
9335713100
9335718349
9335725245
9335732814
9335737391
9335742457
9335748073
9335753077
9335758632
9335764308
9335771693
9335777552
9335782252
9335788112
9335793788
9335799220
9335805873
9335810939
9335817530
9335822840
9335828700
9335834437
9335839625
9335844874
9335851466
9335857691
9335876734
9335882533
9335888087
9335895228
9335900172
9335907679
9335914210
9335918421
9335925807
9335930872
9335936610
9335944849
9335950221
9335955408
9335961634
9335966395
9335972437
9335978541
9335982935
9335990565
9335995508
9336002650
9336007105
9336014918
9336021021
9336026880
9336034327
9336040613
9336045801
9336052942
9336057459
9336064539
9336069300
9336076746
9336082789
9336091028
9336096582
9336103846
9336109766
9336116541
9336122766
9336127649
9336133692
9336140772
9336147608
9336152307
9336159143
9336163904
9336171289
9336178125
9336184168
9336188928
9336196924
9336201502
9336208338
9336214441
9336220300
9336227503
9336235193
9336238977
9336246362
9336251855
9336257654
9336264062
9336273462
9336280969
9336288354
9336294702
9336301538
9336305810
9336312463
9336318139
9336325159
9336332849
9336337671
9336344568
9336350610
9336356408
9336363122
9336368799
9336375634
9336381311
9336388269
9336393579
9336400415
9336406640
9336412561
9336418176
9336425500
9336432519
9336436547
9336443322
9336448815
9336455651
9336461267
9336468957
9336476647
9336481469
9336488122
9336494897
9336500573
9336505029
9336511010
9336519555
9336525475
9336531152
9336537011
9336541589
9336548852
9336554101
9336560143
9336567406
9336573266
9336580163
9336585351
9336591393
9336596520
9336599511
9336609460
9336615258
9336622460
9336628075
9336633263
9336638756
9336645165
9336650841
9336657860
9336664818
9336669579
9336675927
9336682702
9336689660
9336694848
9336703881
9336711815
9336717369
9336720299
9336728722
9336732872
9336739647
9336742455
9336751244
9336757286
9336763024
9336769432
9336775475
9336781822
9336786949
9336793541
9336800438
9336807213
9336812218
9336819054
9336824913
9336829918
9336835838
9336841026
9336847801
9336852745
9336859032
9336864403
9336870811
9336875755
9336880699
9336888817
9336896568
9336900841
9336907066
9336914940
9336919945
9336925865
9336931480
9336937706
9336944420
9336948753
9336954551
9336959251
9336965110
9336970421
9336977806
9336984398
9336989830
9336995689
9337001060
9337007347
9337011314
9337018211
9337024070
9337030235
9337035057
9337041954
9337047203
9337053184
9337058616
9337064353
9337071372
9337077293
9337082237
9337087974
9337094444
9337098777
9337106468
9337112693
9337119529
9337124961
9337131492
9337136985
9337143028
9337148948
9337154380
9337161582
9337167380
9337172202
9337177817
9337184348
9337189597
9337196799
9337202048
9337209312
9337214438
9337221519
9337226462
9337232993
9337238975
9337245261
9337252585
9337258017
9337266684
9337273276
9337279013
9337283530
9337289817
9337298728
9337304770
9337310019
9337316001
9337322226
9337328025
9337334677
9337340842
9337349082
9337356284
9337361655
9337366843
9337372397
9337379111
9337384848
9337390524
9337398642
9337403647
9337410971
9337417136
9337422934
9337427695
9337435019
9337444479
9337451254
9337458884
9337467245
9337473349
9337480063
9337484518
9337491476
9337497824
9337502829
9337511374
9337516195
9337523398
9337528341
9337534140
9337542196
9337548544
9337554220
9337561545
9337566183
9337573446
9337578512
9337584982
9337592611
9337600119
9337604635
9337611410
9337616903
9337623678
9337629171
9337636129
9337643148
9337648031
9337654623
9337660726
9337666647
9337672628
9337678121
9337685995
9337691915
9337696371
9337703207
9337710043
9337715719
9337721578
9337728109
9337734701
9337743490
9337748922
9337755270
9337762167
9337768880
9337774923
9337781393
9337791158
9337797445
9337803670
9337810079
9337815389
9337823263
9337828512
9337834554
9337842916
9337848592
9337853780
9337860738
9337867025
9337874410
9337879781
9337885579
9337893026
9337897481
9337903524
9337909444
9337916280
9337922261
9337928853
9337935384
9337941976
9337947347
9337953816
9337958760
9337965291
9337970418
9337978291
9337984883
9337989278
9337995992
9338000569
9338007405
9338013997
9338019612
9338025044
9338033589
9338038472
9338044270
9338049336
9338056172
9338062215
9338069295
9338076131
9338081746
9338088216
9338094258
9338101094
9338107381
9338113728
9338119526
9338124898
9338130635
9338134541
9338140950
9338147236
9338152607
9338158406
9338163777
9338169453
9338175373
9338180623
9338185444
9338190327
9338197224
9338203572
9338210163
9338215290
9338221028
9338226094
9338230244
9338236347
9338244587
9338249470
9338254963
9338259785
9338266438
9338271137
9338277180
9338283894
9338289509
9338296101
9338301350
9338305805
9338313313
9338319050
9338325581
9338330647
9338337299
9338342915
9338348408
9338353718
9338359150
9338365925
9338371479
9338377460
9338383991
9338389484
9338394550
9338401874
9338407917
9338415973
9338424091
9338431843
9338438495
9338446186
9338453205
9338458759
9338466144
9338473163
9338477924
9338484760
9338491779
9338497455
9338502582
9338508503
9338516559
9338522785
9338528827
9338534626
9338540729
9338546527
9338552326
9338558429
9338563983
9338571796
9338576801
9338583881
9338589252
9338594440
9338600665
9338608905
9338615558
9338623370
9338630267
9338635394
9338643146
9338648578
9338655963
9338663226
9338670611
9338676898
9338682269
9338688739
9338695331
9338699786
9338709430
9338715777
9338723224
9338730426
9338737201
9338743121
9338748858
9338756549
9338763080
9338770099
9338776202
9338783221
9338789202
9338796038
9338806842
9338813433
9338820513
9338824481
9338831439
9338839007
9338844012
9338850970
9338858477
9338865191
9338875018
9338881854
9338888384
9338893328
9338902789
9338909014
9338917925
9338924090
9338929766
9338937090
9338944231
9338951556
9338957476
9338964129
9338971575
9338979021
9338985125
9338992998
9339000017
9339007586
9339016558
9339022173
9339029619
9339038103
9339043718
9339050005
9339056841
9339062761
9339069658
9339076311
9339082415
9339088457
9339094744
9339100542
9339107378
9339113298
9339118853
9339125933
9339131304
9339139849
9339144914
9339152056
9339157610
9339165727
9339170854
9339177690
9339183855
9339190691
9339197160
9339203264
9339207903
9339215288
9339222978
9339229692
9339236650
9339241716
9339249895
9339254167
9339260759
9339265092
9339273515
9339278215
9339285173
9339291093
9339296464
9339301652
9339308793
9339314836
9339319902
9339326310
9339332597
9339338029
9339343095
9339348771
9339355180
9339360551
9339366960
9339373368
9339379228
9339385881
9339390153
9339397111
9339401567
9339408342
9339414750
9339421647
9339425981
9339432572
9339438493
9339444963
9339450273
9339456742
9339460954
9339468827
9339474320
9339478532
9339487016
9339493241
9339498979
9339504594
9339510331
9339517106
9339522721
9339527970
9339535111
9339540849
9339547440
9339552445
9339559159
9339565385
9339571366
9339577653
9339581986
9339589860
9339594987
9339603898
9339612626
9339622819
9339627884
9339634415
9339642167
9339649064
9339656266
9339662430
9339668900
9339675126
9339681595
9339687760
9339692643
9339701798
9339707474
9339715226
9339721329
9339727799
9339732804
9339740555
9339745926
9339753678
9339758499
9339766251
9339771439
9339779190
9339785721
9339791458
9339797257
9339806229
9339812698
9339818741
9339827042
9339833023
9339840103
9339846024
9339853226
9339859085
9339865189
9339872391
9339877945
9339885147
9339891311
9339898636
9339903763
9339910965
9339917129
9339924270
9339931167
9339937820
9339944168
9339951004
9339957290
9339964309
9339970596
9339976394
9339984207
9339989151
9339996841
9340003067
9340011001
9340017227
9340022903
9340029495
9340036636
9340042983
9340048599
9340054458
9340062087
9340067458
9340074539
9340080398
9340088271
9340095046
9340101577
9340106338
9340115493
9340121597
9340128066
9340134231
9340141006
9340147353
9340154922
9340161086
9340166396
9340173720
9340179580
9340186050
9340193374
9340200149
9340206557
9340215285
9340222182
9340230666
9340236159
9340242568
9340248549
9340258742
9340264357
9340274245
9340279494
9340288161
9340293776
9340302382
9340307570
9340315505
9340320449
9340328810
9340334670
9340341628
9340346572
9340353591
9340358718
9340365614
9340370253
9340377333
9340382643
9340389418
9340394911
9340401808
9340408827
9340413405
9340419264
9340426405
9340433424
9340439528
9340444350
9340451918
9340459120
9340464491
9340471815
9340478407
9340486525
9340492689
9340498549
9340504042
9340509962
9340514601
9340521559
9340528395
9340534315
9340540907
9340546766
9340552443
9340559767
9340564955
9340571974
9340577467
9340583754
9340589369
9340594313
9340600050
9340606459
9340611708
9340618482
9340624769
9340631361
9340637220
9340642530
9340649427
9340654432
9340661329
9340667005
9340671949
9340677808
9340684339
9340689588
9340695936
9340702100
9340708753
9340718702
9340723341
9340729810
9340735059
9340741346
9340747083
9340753309
9340760572
9340766736
9340772535
9340779310
9340784559
9340790052
9340797315
9340802442
9340809339
9340816297
9340822522
9340827955
9340833143
9340840345
9340846631
9340855176
9340859815
9340867139
9340874707
9340879285
9340887464
9340894300
9340900525
9340906324
9340912610
9340919568
9340925672
9340931348
9340937390
9340944654
9340950818
9340957715
9340963880
9340970715
9340977185
9340982556
9340990369
9340996777
9341002393
9341008252
9341016187
9341021313
9341029309
9341034436
9341042737
9341052747
9341059277
9341066479
9341073804
9341080517
9341086011
9341093823
9341099621
9341107495
9341114087
9341119641
9341125012
9341132763
9341139416
9341145581
9341153088
9341158886
9341165417
9341172802
9341178051
9341185315
9341191296
9341199353
9341205029
9341212414
9341217297
9341224560
9341230541
9341237805
9341243298
9341250561
9341255810
9341262646
9341270214
9341277172
9341283398
9341290600
9341299816
9341306835
9341313671
9341320995
9341328747
9341334972
9341341442
9341347546
9341354076
9341360241
9341367077
9341373241
9341378918
9341385082
9341391552
9341397716
9341404918
9341411022
9341417003
9341423229
9341430370
9341436779
9341442943
9341449291
9341456798
9341463817
9341469677
9341477611
9341484081
9341490856
9341498912
9341508129
9341516551
9341521800
9341528881
9341535533
9341541271
9341548900
9341555980
9341561107
9341570934
9341576915
9341583080
9341589732
9341595653
9341600841
9341608287
9341614024
9341620006
9341625194
9341632701
9341638377
9341644359
9341651256
9341658885
9341664561
9341671397
9341675975
9341683421
9341690074
9341695872
9341702281
9341710032
9341715281
9341722911
9341728526
9341735606
9341741404
9341748546
9341753062
9341761912
9341768504
9341774913
9341780833
9341787364
9341793284
9341797862
9341805369
9341810069
9341817881
9341822642
9341829783
9341835337
9341840708
9341845774
9341852549
9341857615
9341864390
9341870249
9341875132
9341881358
9341887644
9341893198
9341898753
9341904978
9341911265
9341917551
9341923533
9341929026
9341935068
9341941965
9341947703
9341954172
9341959727
9341966074
9341971812
9341977427
9341983103
9341987864
9341995432
9341999643
9342005869
9342012034
9342017649
9342023813
9342029429
9342037058
9342044748
9342051340
9342057749
9342063974
9342068430
9342076242
9342081675
9342089487
9342096140
9342101450
9342107248
9342114756
9342120554
9342127268
9342133432
9342140085
9342146494
9342152414
9342158212
9342165048
9342171396
9342176706
9342185007
9342191171
9342197458
9342203195
9342211008
9342215463
9342223337
9342230966
9342236764
9342243234
9342250497
9342255807
9342263071
9342268747
9342276681
9342284372
9342291086
9342299631
9342306466
9342312814
9342319894
9342327585
9342333505
9342340707
9342345895
9342353097
9342358896
9342366098
9342372506
9342379403
9342388925
9342393869
9342401559
9342407418
9342413766
9342419503
9342427560
9342432931
9342440621
9342446542
9342453805
9342459542
9342466866
9342472970
9342480294
9342512704
9342518685
9342526681
9342533578
9342540169
9342547372
9342552315
9342559823
9342566231
9342572579
9342579903
9342587227
9342593148
9342598702
9342605782
9342611336
9342617562
9342625802
9342632210
9342639107
9342645394
9342652108
9342658638
9342665841
9342672127
9342678292
9342685494
9342691170
9342698555
9342702889
9342710640
9342717354
9342725289
9342733406
9342740547
9342747017
9342753670
9342760018
9342765450
9342773384
9342779366
9342785347
9342792061
9342799385
9342804512
9342812447
9342819405
9342825508
9342832405
9342840218
9342847053
9342853523
9342860725
9342865669
9342873360
9342879585
9342885505
9342892463
9342899177
9342907600
9342913521
9342921516
9342927559
9342938179
9342943855
9342949836
9342955268
9342962715
9342968269
9342974189
9342979682
9342987129
9342991523
9342999031
9343004035
9343011482
9343015693
9343023200
9343030036
9343035407
9343042304
9343047675
9343055000
9343060371
9343066230
9343073310
9343078742
9343085151
9343091377
9343095832
9343101447
9343107734
9343113654
9343119697
9343126899
9343132026
9343138190
9343145698
9343151069
9343157538
9343163154
9343168098
9343174872
9343180915
9343185981
9343192450
9343198920
9343203437
9343213630
9343220282
9343224555
9343232367
9343236640
9343243659
9343248359
9343255317
9343261481
9343266547
9343271796
9343278449
9343283759
9343290229
9343295417
9343302375
9343310797
9343316840
9343325080
9343331061
9343338446
9343343878
9343350653
9343355658
9343362372
9343369757
9343374152
9343381720
9343386115
9343392584
9343398993
9343406012
9343412299
9343417548
9343425238
9343431036
9343437262
9343444769
9343450262
9343457587
9343463995
9343471258
9343476752
9343483954
9343488653
9343496893
9343508124
9343514410
9343522650
9343527594
9343535589
9343542791
9343548529
9343556219
9343561102
9343567389
9343574713
9343581549
9343588201
9343594183
9343600775
9343607183
9343613653
9343620489
9343625616
9343632818
9343639471
9343645818
9343652410
9343660162
9343664983
9343671636
9343678594
9343684759
9343693426
9343699529
9343706609
9343712774
9343718023
9343725713
9343731878
9343739141
9343744512
9343752019
9343757879
9343765020
9343770574
9343778020
9343782476
9343789861
9343796087
9343804204
9343811223
9343817693
9343823858
9343828740
9343835759
9343842229
9343849431
9343854985
9343864202
9343869878
9343876165
9343883000
9343889165
9343895757
9343903569
9343909429
9343917058
9343924077
9343928960
9343935857
9343944158
9343951238
9343957768
9343966741
9343972112
9343978459
9343984990
9343991338
9343997441
9344005437
9344012822
9344018559
9344024480
9344032231
9344037053
9344044804
9344050664
9344058354
9344064885
9344072941
9344079045
9344085209
9344093205
9344099553
9344106816
9344113102
9344120671
9344126713
9344133732
9344138859
9344145939
9344153508
9344159428
9344167057
9344177861
9344183049
9344188969
9344194401
9344201786
9344207646
9344213749
9344221745
9344227116
9344233463
9344238896
9344244633
9344252079
9344258000
9344265690
9344270634
9344277714
9344283390
9344290409
9344296085
9344304020
9344308109
9344315067
9344320988
9344327885
9344333073
9344339908
9344345524
9344352421
9344356876
9344363773
9344371219
9344376652
9344382023
9344388004
9344393497
9344399479
9344405033
9344411197
9344418216
9344423771
9344430057
9344435428
9344441898
9344446231
9344453128
9344458927
9344465213
9344471256
9344476993
9344482425
9344488285
9344495243
9344501041
9344506412
9344512332
9344519290
9344524600
9344531009
9344536319
9344541446
9344547611
9344554508
9344559573
9344566715
9344572879
9344578861
9344585147
9344591800
9344597354
9344603702
9344609378
9344615909
9344621646
9344628116
9344634036
9344641543
9344646670
9344653201
9344659915
9344665042
9344671817
9344678287
9344685061
9344690799
9344697329
9344703616
9344710086
9344716311
9344722720
9344728946
9344737918
9344747989
9344756045
9344761660
9344770877
9344776553
9344784487
9344789431
9344796694
9344801516
9344808779
9344815737
9344821841
9344826602
9344834292
9344839114
9344847109
9344854006
9344860110
9344864932
9344872256
9344879580
9344885745
9344892336
9344900088
9344905825
9344911990
9344917666
9344925356
9344930727
9344936892
9344943484
9344951235
9344957461
9344963015
9344970461
9344976198
9344981997
9344990236
9344998964
9345003969
9345009890
9345017031
9345022646
9345029909
9345036684
9345043947
9345050295
9345056765
9345062685
9345068117
9345075563
9345080568
9345088381
9345094179
9345101137
9345107424
9345113649
9345120607
9345125307
9345132082
9345139162
9345147768
9345153139
9345160524
9345166017
9345171632
9345179872
9345187685
9345195314
9345200441
9345209108
9345217714
9345223817
9345229066
9345236879
9345242128
9345249513
9345255739
9345263612
9345268983
9345275941
9345283449
9345290895
9345297059
9345301881
9345310426
9345316652
9345323121
9345330507
9345337404
9345346254
9345352540
9345358461
9345367005
9345373963
9345381593
9345388673
9345395997
9345403077
9345410096
9345417665
9345423707
9345429994
9345435975
9345442323
9345448304
9345454102
9345461854
9345468507
9345473939
9345479554
9345486939
9345492616
9345497987
9345504639
9345509888
9345517030
9345522401
9345528321
9345535340
9345541077
9345548218
9345553528
9345560547
9345566407
9345571839
9345577759
9345584900
9345590943
9345598267
9345602967
9345609742
9345617188
9345621766
9345629639
9345634400
9345641358
9345647217
9345652588
9345659058
9345664429
9345670349
9345675843
9345682678
9345687683
9345694397
9345699524
9345705445
9345711609
9345716370
9345722107
9345727783
9345733887
9345739319
9345743164
9345750427
9345755371
9345760315
9345765503
9345772095
9345776733
9345783813
9345790161
9345796875
9345801575
9345808227
9345815857
9345821167
9345828979
9345834961
9345841064
9345846741
9345853332
9345859375
9345864990
9345871826
9345878296
9345883667
9345890136
9345897033
9345902771
9345911377
9345916565
9345922180
9345929748
9345934997
9345940612
9345947815
9345956420
9345962402
9345971435
9345977783
9345985412
9345991577
9345999084
9346005248
9346011230
9346019348
9346024841
9346032165
9346038452
9346046325
9346051879
9346057922
9346065490
9346070739
9346078002
9346085815
9346092590
9346099914
9346106994
9346113280
9346119262
9346125854
9346131835
9346140502
9346145446
9346154235
9346161193
9346167663
9346174743
9346181762
9346189330
9346195067
9346202941
9346209655
9346214049
9346222289
9346228576
9346234191
9346240050
9346247313
9346253356
9346260619
9346266539
9346274901
9346281371
9346288085
9346294371
9346299986
9346306761
9346314879
9346321715
9346328368
9346336302
9346341673
9346348631
9346356749
9346364745
9346373595
9346378661
9346386290
9346393614
9346399962
9346406615
9346412962
9346418577
9346426756
9346433104
9346438780
9346444578
9346450621
9346458739
9346463438
9346472655
9346478697
9346484678
9346492186
9346498228
9346506712
9346512754
9346520933
9346527891
9346536924
9346542295
9346551878
9346558287
9346567503
9346574156
9346581663
9346587278
9346592527
9346599180
9346605894
9346610655
9346617857
9346623289
9346628599
9346633543
9346638914
9346647031
9346652158
9346658140
9346664426
9346670225
9346678403
9346684446
9346691831
9346698179
9346703855
9346710447
9346715513
9346723264
9346729795
9346736692
9346742917
9346749082
9346754270
9346760496
9346767270
9346773557
9346781797
9346787351
9346793393
9346800168
9346806089
9346812375
9346900876
9346906125
9346912107
9346917539
9346924069
9346929868
9346936276
9346941342
9346947446
9346952634
9346962582
9346969540
9346975949
9346983578
9346991635
9346999936
9347006100
9347012814
9347019345
9347025204
9347030881
9347037717
9347044003
9347050656
9347057187
9347063595
9347069943
9347076962
9347082089
9347088131
9347095883
9347101559
9347107602
9347114376
9347121090
9347126828
9347132321
9347137875
9347144528
9347150631
9347161496
9347168270
9347174435
9347181637
9347186764
9347194576
9347202206
9347209469
9347215450
9347221981
9347229489
9347234554
9347242855
9347249264
9347255978
9347261959
9347268185
9347275753
9347283443
9347288204
9347296322
9347303707
9347308895
9347316036
9347323299
9347331234
9347341244
9347348324
9347354732
9347360225
9347366146
9347372860
9347378841
9347387325
9347392086
9347399654
9347405941
9347413631
9347419246
9347426632
9347435299
9347438655
9347447444
9347454219
9347459774
9347464778
9347473384
9347482295
9347488277
9347495540
9347501888
9347510311
9347517696
9347523189
9347531490
9347540218
9347547176
9347552913
9347560298
9347567012
9347572444
9347580318
9347587093
9347593257
9347599849
9347606013
9347613582
9347619319
9347625911
9347633296
9347639644
9347645137
9347651546
9347656978
9347663508
9347670405
9347675654
9347682612
9347688167
9347695186
9347700862
9347706172
9347712092
9347719050
9347725032
9347731929
9347736445
9347743464
9347748469
9347755366
9347760432
9347767268
9347773005
9347780024
9347786982
9347791743
9347799189
9347803767
9347809382
9347816828
9347823847
9347828486
9347836665
9347841853
9347847346
9347851618
9347860102
9347866145
9347872919
9347878168
9347884394
9347889582
9347893793
9347901850
9347908015
9347914606
9347919184
9347926691
9347933039
9347939875
9347944575
9347951349
9347957270
9347962824
9347969965
9347975275
9347980707
9347985468
9347993891
9347999506
9348004511
9348010920
9348017633
9348021906
9348028254
9348033747
9348040888
9348048090
9348053217
9348059015
9348064386
9348071222
9348076898
9348083612
9348094477
9348100946
9348107416
9348114008
9348120966
9348127069
9348131403
9348139337
9348144586
9348151727
9348157404
9348163995
9348169550
9348176202
9348183832
9348188715
9348195917
9348203180
9348209405
9348216485
9348222711
9348230340
9348236566
9348243402
9348249383
9348255060
9348262750
9348267633
9348275750
9348282403
9348289605
9348295099
9348302240
9348307916
9348314935
9348320306
9348327508
9348332940
9348340020
9348345452
9348352594
9348358331
9348365350
9348369500
9348377435
9348383477
9348390557
9348396417
9348402459
9348408196
9348414117
9348420525
9348428216
9348434564
9348439935
9348445550
9348452630
9348458245
9348464227
9348470086
9348477471
9348483514
9348489434
9348495049
9348499871
9348507012
9348512810
9348521905
9348528496
9348536431
9348541070
9348547783
9348552910
9348559624
9348566887
9348572381
9348579949
9348584832
9348593621
9348600335
9348607903
9348614678
9348623223
9348627800
9348635613
9348642388
9348649834
9348654290
9348661614
9348669426
9348674431
9348681938
9348688225
9348693962
9348698540
9348706841
9348711846
9348719170
9348726921
9348733879
9348741875
9348747368
9348754143
9348759453
9348766350
9348771904
9348777885
9348785454
9348790886
9348797661
9348802483
9348809257
9348816337
9348822197
9348829277
9348837272
9348843193
9348848381
9348853874
9348858269
9348864799
9348871513
9348878776
9348883293
9348890251
9348895073
9348900688
9348905937
9348913383
9348920646
9348925956
9348931755
9348938407
9348942863
9348949882
9348955863
9348961601
9348967460
9348974723
9348980949
9348986808
9348992790
9348998588
9349003105
9349010185
9349017082
9349022941
9349029899
9349035392
9349039481
9349046073
9349052299
9349058585
9349062797
9349068229
9349074454
9349079520
9349085380
9349090629
9349096610
9349101981
9349108024
9349115165
9349122001
9349129691
9349135551
9349142570
9349148551
9349153678
9349160026
9349165336
9349171073
9349177176
9349183219
9349190116
9349195792
9349201590
9349206351
9349212333
9349218131
9349223441
9349230277
9349236686
9349242057
9349250907
9349257315
9349265799
9349273612
9349280936
9349286856
9349295157
9349303153
9349309134
9349317313
9349322928
9349329398
9349335745
9349341910
9349347952
9349354666
9349360464
9349365958
9349373099
9349379752
9349384817
9349391226
9349397879
9349404166
9349411001
9349415762
9349422964
9349428885
9349436209
9349443045
9349449515
9349455496
9349462515
9349469168
9349474173
9349481680
9349488333
9349494986
9349499929
9349508291
9349513235
9349520926
9349525686
9349533499
9349538565
9349545645
9349550772
9349557913
9349565054
9349572561
9349579458
9349585928
9349595022
9349601370
9349607473
9349613882
9349620413
9349626638
9349634573
9349640127
9349647573
9349653188
9349659475
9349667104
9349672842
9349680166
9349686513
9349692068
9349697683
9349705129
9349711355
9349719655
9349724355
9349732168
9349739736
9349747060
9349752614
9349760000
9349766469
9349774160
9349780935
9349785878
9349793874
9349800466
9349807241
9349813771
9349819997
9349825246
9349832509
