8953477506
8953484098
8953488614
8953493802
8953499600
8953504361
8953509305
8953514554
8953519620
8953524564
8953530606
8953537991
8953543057
8953549527
8953554776
8953560086
8953567105
8953574002
8953579129
8953582974
8953589505
8953595975
8953600064
8953608243
8953615933
8953621731
8953627225
8953635892
8953642972
8953647427
8953654873
8953660489
8953668301
8953673733
8953680996
8953688992
8953695279
8953704190
8953709866
8953715237
8953724942
8953731900
8953738736
8953745633
8953752285
8953758267
8953766445
8953774624
8953781643
8953788723
8953796231
8953803921
8953812039
8953818569
8953826565
8953833645
8953846340
8953855679
8953863796
8953872341
8953879543
8953888638
8953896450
8953903347
8953910427
8953916653
8953924404
8953931301
8953938076
8953943142
8953951076
8953956753
8953966091
8953972744
8953979519
8953983425
8953992763
8953999172
8954005886
8954013393
8954020595
8954028896
8954034145
8954041469
8954048671
8954056057
8954061306
8954069850
8954077480
8954084011
8954092250
8954099513
8954105678
8954112270
8954118739
8954127712
8954135036
8954141750
8954148708
8954155666
8954161952
8954168727
8954176845
8954184718
8954191493
8954199123
8954206386
8954211696
8954220485
8954226344
8954234706
8954240871
8954248622
8954254298
8954261806
8954267604
8954275722
8954282680
8954290797
8954298488
8954305262
8954311854
8954318629
8954324794
8954331874
8954340968
8954348048
8954355738
8954361048
8954370326
8954375636
8954383448
8954391017
8954398463
8954404261
8954413416
8954420313
8954429713
8954436854
8954444239
8954453211
8954461146
8954468836
8954475123
8954482447
8954488673
8954498438
8954505091
8954513453
8954519984
8954528528
8954535914
8954544276
8954552210
8954559717
8954567469
8954576319
8954583948
8954592249
8954600733
8954607019
8954614161
8954620447
8954629175
8954635401
8954643885
8954652002
8954659632
8954666773
8954674097
8954680933
8954688196
8954696314
8954702356
8954710596
8954718653
8954725977
8954732752
8954743372
8954750757
8954758325
8954765588
8954772791
8954779749
8954788049
8954795496
8954801416
8954809839
8954817590
8954825281
8954834192
8954840417
8954849756
8954856958
8954863977
8954871301
8954877832
8954884973
8954893213
8954903161
8954911096
8954918908
8954925195
8954931543
8954941003
8954950341
8954959436
8954966638
8954974511
8954981835
8954989099
8954996667
8955004296
8955012963
8955021874
8955026635
8955036340
8955043725
8955051598
8955059472
8955068078
8955077050
8955083764
8955090600
8955100060
8955107629
8955116357
8955122826
8955133507
8955139550
8955147606
8955156457
8955164269
8955175011
8955186974
8955202233
8955216820
8955236901
8955253807
8955272301
8955286766
8955296654
8955307091
8955316551
8955325646
8955336449
8955348168
8955358910
8955370201
8955384056
8955395042
8955407310
8955419639
8955433128
8955444420
8955454857
8955465477
8955478050
8955489586
8955498741
8955510582
8955522606
8955532371
8955542869
8955554039
8955564781
8955573081
8955585411
8955596763
8955608970
8955620445
8955631187
8955641258
8955651634
8955662742
8955673728
8955683860
8955694114
8955704124
8955714988
8955724814
8955736350
8955746787
8955758872
8955768577
8955778220
8955789267
8955799704
8955810630
8955821372
8955832175
8955842978
8955852439
8955862570
8955872763
8955883505
8955894187
8955907675
8955918479
8955929648
8955942648
8955954977
8955966269
8955978049
8955988486
8955998190
8956009238
8956020895
8956030051
8956039755
8956048361
8956058493
8956066549
8956075766
8956084799
8956093527
8956102499
8956110556
8956116293
8956122702
8956129232
8956135519
8956141806
8956148031
8956155538
8956162741
8956168356
8956173971
8956181112
8956187033
8956191244
8956198995
8956202658
8956211263
8956217123
8956221639
8956227926
8956233419
8956241049
8956244222
8956251424
8956258016
8956264364
8956268880
8956274129
8956284017
8956291647
8956298543
8956304403
8956309347
8956315389
8956321249
8956327779
8956332418
8956340658
8956345968
8956352620
8956358175
8956366109
8956372457
8956378866
8956384847
8956391195
8956394368
8956402852
8956407491
8956413717
8956421712
8956427144
8956432515
8956436605
8956443624
8956448201
8956457234
8956463582
8956468831
8956474141
8956479451
8956485372
8956490804
8956497579
8956501851
8956510152
8956515889
8956521810
8956528890
8956533833
8956541768
8956550496
8956557088
8956562032
8956567830
8956574422
8956580830
8956586385
8956593037
8956601704
8956607503
8956614644
8956619954
8956627888
8956634175
8956642354
8956650044
8956656636
8956665120
8956672261
8956680256
8956686482
8956696003
8956705586
8956713215
8956719380
8956727375
8956733418
8956740193
8956746052
8956754353
8956759114
8956769734
8956776325
8956783589
8956791157
8956796955
8956803791
8956811726
8956818195
8956822773
8956831928
8956838398
8956844441
8956850849
8956855671
8956864033
8956867573
8956875080
8956880329
8956886494
8956892353
8956898701
8956904499
8956910602
8956917011
8956923542
8956928913
8956935688
8956941486
8956948200
8956953449
8956959553
8956966572
8956970722
8956978473
8956982990
8956990680
8956995929
8957001423
8957007160
8957013752
8957021625
8957025043
8957032672
8957038227
8957043232
8957049396
8957055255
8957060871
8957067096
8957072101
8957076740
8957082111
8957088642
8957094013
8957101337
8957105426
8957112445
8957119281
8957125140
8957130451
8957135028
8957143268
8957148883
8957153949
8957159747
8957165179
8957170551
8957175006
8957182635
8957187762
8957193133
8957199420
8957204059
8957211139
8957218158
8957223712
8957230975
8957237628
8957243731
8957250018
8957256366
8957263080
8957271014
8957276263
8957282672
8957288470
8957295245
8957298541
8957307208
8957313678
8957320575
8957325824
8957331744
8957338519
8957344561
8957351336
8957357623
8957364154
8957370074
8957377459
8957382464
8957389971
8957396258
8957402117
8957409380
8957415179
8957421649
8957427508
8957433917
8957441119
8957447649
8957453265
8957459490
8957466143
8957472247
8957480120
8957486590
8957492449
8957497637
8957504778
8957511614
8957517718
8957524126
8957531084
8957537249
8957542071
8957548113
8957552996
8957560137
8957563494
8957573504
8957579546
8957585833
8957591814
8957596697
8957604509
8957611834
8957618181
8957625383
8957629961
8957637529
8957642534
8957648882
8957655352
8957662615
8957668779
8957675188
8957681291
8957686846
8957693315
8957699602
8957708208
8957714250
8957720110
8957726396
8957732256
8957737871
8957743852
8957750932
8957756120
8957763322
8957769853
8957777422
8957784624
8957789934
8957798845
8957804033
8957813127
8957820207
8957826982
8957832475
8957838029
8957846635
8957853532
8957859636
8957865922
8957872819
8957879899
8957884538
8957892595
8957899675
8957904741
8957912370
8957917314
8957923600
8957928483
8957938676
8957944535
8957950700
8957958085
8957966020
8957971879
8957979325
8957986039
8957991837
8957996598
8958002336
8958007035
8958013261
8958019059
8958024674
8958029069
8958035050
8958039018
8958046403
8958049577
8958056657
8958062821
8958068131
8958074906
8958079057
8958085099
8958089860
8958096329
8958099381
8958108475
8958114457
8958119706
8958125992
8958129777
8958134965
8958141190
8958147660
8958152970
8958158585
8958163163
8958167985
8958173905
8958178971
8958185379
8958188248
8958194962
8958199723
8958204300
8958209793
8958214737
8958220108
8958225724
8958232010
8958239823
8958248368
8958253250
8958257706
8958265885
8958271622
8958278153
8958283463
8958287979
8958293839
8958299576
8958307022
8958314346
8958318802
8958327103
8958332657
8958338455
8958344803
8958350418
8958356400
8958361404
8958367996
8958374954
8958380569
8958386124
8958391312
8958398941
8958404068
8958409317
8958416458
8958420914
8958428299
8958434402
8958440750
8958446304
8958450760
8958457046
8958462417
8958470474
8958476883
8958483108
8958490432
8958496353
8958503433
8958510696
8958516555
8958523758
8958528579
8958536026
8958543411
8958550064
8958556472
8958560928
8958569045
8958574111
8958581375
8958587844
8958594314
8958600356
8958605422
8958613174
8958619949
8958625808
8958631118
8958637466
8958643996
8958651015
8958657241
8958662124
8958669997
8958675796
8958682937
8958689345
8958695754
8958702651
8958708388
8958715529
8958721816
8958727614
8958734633
8958740798
8958746963
8958753249
8958759292
8958764296
8958770583
8958776076
8958784316
8958791945
8958798049
8958803298
8958809279
8958816359
8958820754
8958827590
8958833876
8958841384
8958845778
8958855055
8958862136
8958868910
8958875136
8958881972
8958888808
8958896071
8958902602
8958908705
8958914931
8958921217
8958927199
8958934767
8958939650
8958945326
8958951674
8958957716
8958964857
8958971388
8958978041
8958982924
8958990370
8958994704
8959001356
8959006361
8959015883
8959022047
8959027785
8959032973
8959038832
8959044691
8959051283
8959057509
8959063246
8959070448
8959076552
8959083082
8959087416
8959094679
8959101942
8959107740
8959113844
8959121046
8959126539
8959132460
8959137831
8959143507
8959150038
8959156813
8959160292
8959167799
8959171461
8959179579
8959183302
8959192579
8959198377
8959204115
8959210767
8959214918
8959220960
8959227430
8959234510
8959240064
8959245679
8959251173
8959257276
8959263441
8959269117
8959276136
8959282606
8959288404
8959293165
8959299818
8959305006
8959312330
8959315504
8959323621
8959330335
8959334546
8959341871
8959346509
8959351819
8959357923
8959364209
8959370801
8959376233
8959381482
8959385816
8959393323
8959398999
8959404859
8959411756
8959416883
8959423108
8959427625
8959433972
8959440381
8959446302
8959453565
8959458448
8959463941
8959470471
8959475781
8959482984
8959488172
8959494092
8959500134
8959505994
8959511304
8959516248
8959523511
8959529370
8959535657
8959542432
8959546216
8959554211
8959560681
8959566357
8959572705
8959577649
8959585034
8959591199
8959596875
8959604016
8959610852
8959616589
8959622876
8959629040
8959635022
8959640149
8959648938
8959655346
8959661145
8959669140
8959674023
8959681530
8959687939
8959695141
8959701916
8959707653
8959713269
8959717724
8959724865
8959729748
8959737561
8959742443
8959751171
8959757153
8959763439
8959769299
8959774487
8959782971
8959787365
8959796459
8959802075
8959808727
8959815807
8959823071
8959831860
8959838085
8959844372
8959851391
8959855846
8959862255
8959868420
8959875133
8959882641
8959888256
8959894848
8959900829
8959905407
8959911205
8959917858
8959923656
8959931408
8959936596
8959943004
8959948559
8959957164
8959963390
8959969433
8959976268
8959982860
8959990245
8959996471
8960004589
8960011242
8960016124
8960022899
8960028942
8960035045
8960040843
8960046581
8960052745
8960059093
8960065380
8960070445
8960076122
8960080882
8960088329
8960095531
8960104015
8960109752
8960116039
8960122081
8960128307
8960134715
8960141368
8960147044
8960153819
8960161754
8960167857
8960174388
8960181956
8960188182
8960196788
8960202464
8960209910
8960216746
8960223460
8960231151
8960237681
8960243480
8960254283
8960260142
8960267100
8960275035
8960282420
8960288035
8960294993
8960302806
8960311595
8960319285
8960327525
8960335032
8960342112
8960351878
8960361216
8960368723
8960377024
8960383799
8960389353
8960396006
8960402171
8960409129
8960417246
8960423472
8960430064
8960435984
8960442393
8960448313
8960454783
8960461375
8960468333
8960475718
8960483347
8960490793
8960498240
8960505747
8960512644
8960520151
8960527292
8960534311
8960542551
8960549936
8960555246
8960559336
8960571787
8960579355
8960584909
8960593149
8960598764
8960606882
8960612314
8960620920
8960626413
8960635691
8960642160
8960649973
8960656626
8960666452
8960673715
8960680979
8960688059
8960695993
8960702951
8960708749
8960716684
8960722238
8960731210
8960737924
8960746286
8960752756
8960760873
8960767709
8960776498
8960780832
8960790170
8960798654
8960805551
8960812021
8960819223
8960825937
8960833017
8960839303
8960847238
8960855539
8960861398
8960869027
8960876596
8960882882
8960890146
8960898263
8960906320
8960914193
8960919992
8960928048
8960934579
8960942697
8960950265
8960959847
8960965829
8960975167
8960981576
8960990182
8960995980
8961003854
8961009591
8961018075
8961026437
8961035775
8961041695
8961049508
8961055733
8961062325
8961069710
8961078133
8961084115
8961094430
8961101693
8961109078
8961114510
8961123421
8961129525
8961136971
8961142769
8961148995
8961156441
8961162972
8961169136
8961173897
8961181099
8961186959
8961192452
8961195931
8961203621
8961210457
8961215828
8961225228
8961231087
8961236641
8961244026
8961249642
8961257210
8961264107
8961270943
8961276741
8961284126
8961290596
8961296455
8961302193
8961309456
8961315437
8961321602
8961328499
8961334114
8961339424
8961346138
8961351326
8961357429
8961363411
8961368843
8961373848
8961379463
8961385567
8961391792
8961396431
8961403511
8961409859
8961415352
8961421455
8961425789
8961432441
8961438911
8961444465
8961449531
8961455818
8961461799
8961468086
8961474128
8961479194
8961485237
8961491035
8961496162
8961501655
8961508369
8961514411
8961519477
8961524360
8961530891
8961537117
8961542366
8961549934
8961554389
8961561775
8961567695
8961573554
8961579475
8961585273
8961591926
8961597907
8961604133
8961609443
8961615608
8961620918
8961625678
8961634223
8961639655
8961645881
8961652045
8961658332
8961664191
8961669074
8961678535
8961682441
8961690497
8961697028
8961703559
8961708625
8961715217
8961721808
8961728278
8961734931
8961739997
8961746711
8961752082
8961759101
8961764899
8961772528
8961780219
8961785590
8961793647
8961798835
8961806830
8961810431
8961818549
8961825995
8961832038
8961838874
8961843756
8961849372
8961855963
8961864264
8961870123
8961875922
8961881232
8961887518
8961894476
8961900824
8961907477
8961914923
8961920660
8961926886
8961932745
8961940131
8961946173
8961954840
8961961066
8961967230
8961973028
8961979010
8961985724
8961992865
8961999457
8962005987
8962012030
8962018194
8962023932
8962030340
8962035101
8962043219
8962048102
8962056646
8962062689
8962068975
8962076239
8962081121
8962089972
8962097418
8962103765
8962110907
8962117803
8962123907
8962129766
8962137396
8962142156
8962151129
8962154913
8962163580
8962170599
8962175970
8962184515
8962191351
8962198065
8962201727
8962210516
8962215704
8962223516
8962231939
8962237249
8962245000
8962252569
8962259405
8962263555
8962271490
8962278020
8962284368
8962290288
8962296880
8962302679
8962307256
8962313726
8962318426
8962327337
8962331670
8962337102
8962342840
8962349187
8962356023
8962362676
8962369146
8962376653
8962382207
8962388738
8962393865
8962401372
8962408391
8962414556
8962420171
8962425725
8962431340
8962437444
8962444524
8962449224
8962456914
8962460637
8962467900
8962473882
8962479619
8962485112
8962490483
8962495671
8962502507
8962507512
8962513432
8962518498
8962523747
8962529790
8962535832
8962541142
8962547002
8962554082
8962558903
8962566594
8962572453
8962577824
8962583012
8962589055
8962595280
8962600468
8962606755
8962609746
8962618535
8962624333
8962629826
8962634709
8962639164
8962645817
8962652104
8962657658
8962663151
8962668522
8962673588
8962679570
8962685124
8962689640
8962697941
8962704533
8962709416
8962715458
8962721379
8962726872
8962732853
8962739445
8962745793
8962751652
8962757328
8962761601
8962767460
8962773258
8962780033
8962784916
8962792118
8962798344
8962804569
8962810673
8962817692
8962824467
8962831181
8962838993
8962842899
8962852055
8962858707
8962866093
8962874760
8962878544
8962888798
8962895328
8962902408
8962908573
8962914249
8962922245
8962929569
8962934452
8962941898
8962946842
8962954166
8962960148
8962967411
8962974674
8962980289
8962987125
8962992435
8963001529
8963006656
8963012943
8963020938
8963025516
8963033328
8963038333
8963045719
8963051456
8963059696
8963065799
8963072818
8963078983
8963085880
8963091922
8963096256
8963104862
8963112003
8963118350
8963124027
8963128848
8963136050
8963141483
8963149173
8963153506
8963161563
8963169620
8963174136
8963180240
8963186526
8963194095
8963200686
8963206424
8963211856
8963219058
8963222781
8963230899
8963234317
8963243472
8963250003
8963256289
8963262271
8963268863
8963274844
8963280154
8963289126
8963294070
8963302615
8963306460
8963314395
8963320132
8963326296
8963335696
8963341189
8963348696
8963354617
8963362612
8963368472
8963376650
8963383242
8963392031
8963399355
8963406130
8963412844
8963418276
8963429018
8963436892
8963442385
8963449099
8963453554
8963458437
8963465456
8963471743
8963478701
8963485354
8963491579
8963497622
8963504519
8963510866
8963516909
8963523440
8963531679
8963538027
8963544558
8963549563
8963555910
8963560549
8963567080
8963573366
8963580446
8963586916
8963592775
8963599001
8963603334
8963609316
8963615236
8963624086
8963627809
8963635073
8963641176
8963646974
8963652834
8963658327
8963665285
8963671083
8963676332
8963681825
8963687563
8963693544
8963697756
8963703981
8963711733
8963717470
8963722902
8963727541
8963734071
8963739809
8963745607
8963752016
8963756959
8963763124
8963769227
8963774354
8963780153
8963786378
8963792299
8963798524
8963803712
8963808717
8963814760
8963822450
8963826722
8963834047
8963840516
8963845094
8963853151
8963858644
8963863832
8963871339
8963877565
8963883058
8963888429
8963893739
8963901918
8963906495
8963913697
8963919984
8963925477
8963930970
8963936646
8963942811
8963949281
8963954896
8963960389
8963966187
8963973512
8963979920
8963987855
8963994325
8964000855
8964007203
8964012452
8964020264
8964028809
8964035279
8964042359
8964049439
8964055115
8964060853
8964068177
8964075013
8964081360
8964087769
8964094727
8964100709
8964105774
8964112183
8964117371
8964126221
8964132386
8964138428
8964144227
8964148682
8964155579
8964160523
8964169007
8964175171
8964182007
8964187989
8964193909
8964200562
8964206848
8964213990
8964221802
8964227478
8964233582
8964239624
8964245972
8964252808
8964259155
8964264527
8964271057
8964289612
8964296631
8964302734
8964308777
8964316772
8964321533
8964329346
8964335449
8964341248
8964348022
8964354553
8964364563
8964370056
8964376526
8964382385
8964387939
8964393982
8964400451
8964406372
8964413269
8964418274
8964423034
8964429809
8964435913
8964443298
8964449463
8964454467
8964462707
8964468078
8964476196
8964482971
8964489196
8964496093
8964503112
8964506958
8964515869
8964520202
8964528747
8964537414
8964546020
8964553771
8964557861
8964566772
8964574767
8964582214
8964588744
8964595519
8964602294
8964607848
8964616088
8964619872
8964628234
8964634032
8964640441
8964646239
8964653625
8964659423
8964665710
8964671508
8964677550
8964682555
8964690490
8964695983
8964701964
8964707580
8964712768
8964721190
8964726622
8964731994
8964739501
8964744140
8964749816
8964755736
8964763305
8964769957
8964775328
8964781615
8964787413
8964792235
8964797301
8964805968
8964810790
8964816283
8964822631
8964828490
8964834593
8964839903
8964846068
8964850768
8964857237
8964864073
8964869383
8964874815
8964879881
8964886656
8964891661
8964897032
8964903380
8964907835
8964914915
8964921446
8964927306
8964932249
8964936705
8964943236
8964947508
8964953612
8964959288
8964964659
8964971007
8964976805
8964981383
8964986632
8964992735
8964997862
8965004515
8965010374
8965016722
8965022398
8965029173
8965034483
8965041014
8965048155
8965055235
8965060606
8965067930
8965073423
8965077879
8965085813
8965091917
8965098265
8965105955
8965110655
8965117002
8965121702
8965130613
8965137388
8965144224
8965150144
8965154905
8965163145
8965166929
8965175779
8965181638
8965187437
8965195310
8965200498
8965206907
8965212400
8965222044
8965228269
8965234434
8965239744
8965245542
8965252378
8965256895
8965264341
8965270750
8965277158
8965282895
8965288267
8965292966
8965301877
8965307371
8965313779
8965320920
8965327085
8965333616
8965338620
8965345273
8965350339
8965360044
8965365720
8965372068
8965378720
8965384092
8965391294
8965395566
8965405088
8965412351
8965417295
8965424497
8965429379
8965435422
8965440366
8965449277
8965456235
8965462399
8965467648
8965473569
8965479855
8965485654
8965493100
8965499814
8965505978
8965513669
8965518796
8965526120
8965532346
8965540402
8965547116
8965553342
8965558713
8965564999
8965571042
8965578061
8965585629
8965590695
8965598569
8965605649
8965612301
8965616818
8965625973
8965631405
8965640561
8965647030
8965653683
8965660885
8965666378
8965674252
8965679745
8965688168
8965695858
8965702572
8965708248
8965715878
8965722164
8965728512
8965735897
8965742428
8965748776
8965755673
8965760494
8965767025
8965773129
8965777767
8965787228
8965793087
8965797543
8965803646
8965809750
8965815609
8965821590
8965828548
8965833248
8965841671
8965847225
8965853878
8965859615
8965864132
8965871761
8965877926
8965883480
8965889644
8965895870
8965901241
8965906490
8965914180
8965920467
8965926632
8965932674
8965939144
8965945797
8965951290
8965959102
8965964107
8965970638
8965975338
8965980709
8965986873
8965992488
8965998287
8966003841
8966009334
8966015377
8966018550
8966025569
8966029781
8966038509
8966044429
8966050166
8966055843
8966060848
8966065975
8966073421
8966078670
8966085262
8966089107
8966094539
8966099971
8966106013
8966111140
8966117000
8966123775
8966128780
8966135005
8966139766
8966145747
8966149959
8966156550
8966162288
8966169734
8966174922
8966185298
8966196345
8966205440
8966214534
8966221614
8966227839
8966236018
8966240657
8966247798
8966254512
8966262385
8966268977
8966274165
8966280940
8966285578
8966291865
8966296870
8966304133
8966310786
8966316584
8966321467
8966327510
8966334406
8966339594
8966347590
8966352595
8966360407
8966365778
8966372492
8966377436
8966384516
8966388056
8966397700
8966404353
8966411311
8966417658
8966422785
8966429743
8966437311
8966443049
8966450007
8966456782
8966462885
8966469416
8966475214
8966481135
8966487543
8966494074
8966500239
8966505366
8966512140
8966518732
8966523554
8966534540
8966540400
8966546137
8966552362
8966558649
8966564936
8966569941
8966578241
8966585627
8966591364
8966597772
8966604303
8966609979
8966616266
8966623712
8966629633
8966635370
8966641351
8966647577
8966654657
8966659235
8966666498
8966673334
8966680048
8966684992
8966691461
8966697626
8966703485
8966711542
8966716852
8966724969
8966731317
8966736444
8966743646
8966748102
8966756525
8966762201
8966769586
8966776361
8966783014
8966790094
8966796869
8966805597
8966812921
8966821588
8966827874
8966834832
8966842157
8966848321
8966854974
8966861810
8966868341
8966875299
8966881463
8966887017
8966895257
8966901910
8966908135
8966915032
8966920342
8966926629
8966932977
8966939141
8966945733
8966951653
8966957818
8966965081
8966970940
8966976678
8966980279
8966989068
8966995660
8967002679
8967008477
8967014703
8967021844
8967027825
8967034234
8967040703
8967046868
8967053399
8967058953
8967064751
8967071282
8967076958
8967084038
8967090508
8967095696
8967102898
8967108452
8967114129
8967119561
8967125359
8967130852
8967137261
8967143181
8967150017
8967155693
8967161126
8967167717
8967173577
8967179863
8967184136
8967191765
8967197075
8967201958
8967208672
8967213799
8967221184
8967226616
8967232720
8967237419
8967242119
8967250054
8967256950
8967262749
8967267998
8967273735
8967280022
8967285820
8967293205
8967297722
8967303642
8967308891
8967313713
8967322136
8967327385
8967333061
8967339897
8967344902
8967352898
8967359123
8967365593
8967373100
8967377983
8967386040
8967392631
8967399894
8967406791
8967409904
8967418510
8967424919
8967431205
8967437736
8967443534
8967450737
8967456840
8967461357
8967469352
8967476493
8967483085
8967488761
8967494071
8967502799
8967508415
8967514335
8967521232
8967525871
8967532890
8967539359
8967546073
8967551933
8967559196
8967565910
8967572074
8967577628
8967582450
8967590446
8967594047
8967602225
8967608390
8967614310
8967621390
8967626456
8967635001
8967641288
8967645927
8967652824
8967659049
8967665946
8967670341
8967677054
8967683219
8967690848
8967696952
8967703422
8967709464
8967716361
8967724357
8967731009
8967737052
8967743399
8967748160
8967755240
8967761893
8967769278
8967775504
8967781607
8967789115
8967794913
8967800955
8967807425
8967813712
8967820365
8967826224
8967831900
8967838553
8967844962
8967850760
8967856314
8967863089
8967869559
8967876273
8967882071
8967888907
8967896841
8967901602
8967910513
8967917410
8967924551
8967930533
8967938101
8967943777
8967949209
8967959158
8967965872
8967972342
8967979422
8967985769
8967991263
8967997427
8968005728
8968013357
8968019949
8968025015
8968032827
8968038382
8968044668
8968051504
8968058096
8968064321
8968072439
8968076773
8968085256
8968089590
8968098135
8968104544
8968112722
8968117971
8968124136
8968130544
8968136343
8968141531
8968147878
8968155569
8968160085
8968168569
8968174123
8968179556
8968184499
8968190908
8968199148
8968204763
8968210989
8968215688
8968222524
8968228689
8968235158
8968241872
8968248098
8968253652
8968258718
8968264882
8968269704
8968276418
8968281057
8968288015
8968294484
8968299917
8968307058
8968311757
8968317373
8968324025
8968328969
8968335012
8968339894
8968346486
8968350270
8968358876
8968364064
8968370107
8968376149
8968381520
8968386952
8968392446
8968398183
8968407033
8968413075
8968418263
8968423390
8968428578
8968434255
8968440236
8968446767
8968452870
8968459096
8968464406
8968469838
8968475880
8968481557
8968489064
8968494557
8968500172
8968506520
8968510915
8968517506
8968522572
8968530202
8968536183
8968541432
8968547352
8968551869
8968559437
8968563466
8968571766
8968576832
8968583607
8968590016
8968595692
8968603016
8968609364
8968615223
8968621632
8968627919
8968634144
8968639149
8968645436
8968651112
8968658680
8968665333
8968671192
8968677479
8968683705
8968689076
8968694935
8968701527
8968708302
8968715199
8968720082
8968726124
8968731068
8968738026
8968743336
8968751087
8968755177
8968763233
8968770130
8968776539
8968782764
8968789234
8968796009
8968803028
8968809071
8968815052
8968821033
8968827625
8968834034
8968841907
8968848499
8968854236
8968860706
8968866993
8968873951
8968878406
8968886707
8968891895
8968900196
8968906604
8968912464
8968918995
8968923938
8968931995
8968938465
8968944934
8968951221
8968957752
8968964344
8968970691
8968977832
8968984363
8968990711
8968996326
8969002613
8969009937
8969015613
8969024402
8969032153
8969037769
8969046130
8969051379
8969058765
8969065357
8969072131
8969079089
8969085376
8969090320
8969096606
8969102405
8969107410
8969116138
8969123218
8969129993
8969136828
8969143481
8969149646
8969156177
8969163257
8969170520
8969177295
8969182666
8969189685
8969195056
8969202624
8969208972
8969216784
8969223803
8969230090
8969238452
8969244372
8969251086
8969257739
8969264575
8969269335
8969276965
8969283862
8969288195
8969294421
8969299914
8969306933
8969313586
8969320239
8969324938
8969331896
8969335131
8969343981
8969348498
8969356554
8969363696
8969368884
8969375231
8969380602
8969387194
8969393359
8969398913
8969405749
8969412340
8969418627
8969425036
8969430590
8969437182
8969442065
8969448656
8969454638
8969461046
8969466051
8969472460
8969477038
8969485521
8969490221
8969495287
8969501268
8969507250
8969512438
8969516771
8969525499
8969531542
8969537401
8969543077
8969547716
8969554247
8969559313
8969566088
8969572801
8969578783
8969585436
8969590013
8969597887
8969603136
8969608507
8969615526
8969619798
8969626207
8969632066
8969638231
8969644518
8969648241
8969653734
8969659166
8969665636
8969670152
8969676805
8969679857
8969688158
8969692552
8969698350
8969706407
8969713609
8969720994
8969724535
8969733446
8969739854
8969745653
8969751878
8969756883
8969763536
8969769884
8969775682
8969782029
8969787706
8969793382
8969798082
8969805040
8969809129
8969818223
8969824876
8969830613
8969836290
8969840745
8969847703
8969852708
8969860520
8969865525
8969873948
8969879930
8969886766
8969893296
8969898240
8969906236
8969909837
8969917771
8969924546
8969931748
8969937730
8969942857
8969949937
8969956345
8969962449
8969969590
8969975694
8969982957
8969990098
8969996201
8970004563
8970010178
8970017075
8970023423
8970029038
8970035691
8970042649
8970048813
8970053696
8970061448
8970067124
8970072983
8970080063
8970086167
8970093430
8970098557
8970105454
8970110703
8970118088
8970123215
8970132981
8970141892
8970148484
8970155014
8970158921
8970168259
8970173691
8970180283
8970187851
8970192795
8970200730
8970206345
8970212631
8970220932
8970227524
8970233200
8970239670
8970246567
8970250412
8970257858
8970263901
8970270493
8970277573
8970283737
8970289352
8970295456
8970300522
8970306564
8970315597
8970322555
8970329819
8970336410
8970343063
8970349716
8970356430
8970363266
8970370041
8970376388
8970381820
8970389145
8970395370
8970401291
8970409774
8970416977
8970424423
8970429733
8970435958
8970442306
8970447616
8970453964
8970460250
8970467758
8970472396
8970478927
8970484298
8970490341
8970494796
8970501083
8970507675
8970513778
8970520065
8970524032
8970532821
8970539108
8970545699
8970551803
8970556381
8970562728
8970567672
8970574020
8970579269
8970587264
8970593246
8970598800
8970604598
8970610641
8970616622
8970622603
8970629684
8970636031
8970642745
8970648421
8970653914
8970660506
8970665084
8970672103
8970678756
8970684676
8970691390
8970696273
8970702865
8970707381
8970715743
8970722945
8970727523
8970734237
8970738814
8970745589
8970750838
8970757308
8970763716
8970767928
8970773909
8970779341
8970785140
8970790511
8970796614
8970803023
8970808211
8970813338
8970818709
8970823958
8970828414
8970834517
8970839461
8970846053
8970852400
8970857954
8970863142
8970868391
8970875288
8970879988
8970887129
8970892805
8970898299
8970905196
8970910567
8970919295
8970924177
8970930708
8970937483
8970942427
8970949019
8970953840
8970962813
8970969099
8970975325
8970981489
8970988264
8970994734
8970999617
8971007978
8971015486
8971021650
8971027998
8971033064
8971040144
8971046553
8971054121
8971059919
8971066450
8971073652
8971079084
8971085981
8971090986
8971099531
8971106367
8971112959
8971119184
8971125105
8971129926
8971136579
8971144636
8971150190
8971157148
8971164106
8971170026
8971176374
8971183515
8971190656
8971196638
8971203168
8971209272
8971215681
8971221357
8971228437
8971234846
8971242719
8971248823
8971256269
8971261335
8971271222
8971276899
8971283063
8971290204
8971296735
8971302839
8971308149
8971315595
8971319135
8971328962
8971334943
8971340680
8971348066
8971354474
8971359906
8971364850
8971372724
8971379865
8971386579
8971392316
8971398602
8971404279
8971410077
8971417584
8971424603
8971431012
8971437848
8971442914
8971450787
8971457257
8971466168
8971472760
8971480572
8971486432
8971493146
8971499982
8971505475
8971514630
8971518841
8971526105
8971533490
8971538373
8971545636
8971550519
8971558270
8971565594
8971572491
8971579388
8971587567
8971593182
8971600995
8971607464
8971614972
8971618817
8971626812
8971632489
8971638653
8971644024
8971649273
8971657879
8971664410
8971671490
8971676983
8971683331
8971688763
8971693463
8971700848
8971707318
8971712811
8971720074
8971724712
8971731793
8971735149
8971744427
8971748150
8971755718
8971763165
8971767925
8971774517
8971779339
8971786907
8971793377
8971798382
8971805645
8971810284
8971817058
8971823833
8971829937
8971835308
8971840252
8971846966
8971853069
8971858684
8971866375
8971872356
8971878948
8971884502
8971890361
8971894695
8971898967
8971907207
8971913189
8971918621
8971922710
8971928203
8971933757
8971940166
8971945293
8971951396
8971956584
8971962322
8971967876
8971973308
8971977275
8971984294
8971988628
8971996135
8972001933
8972008342
8972013591
8972018108
8972026775
8972032817
8972038432
8972043803
8972048564
8972056560
8972062419
8972067912
8972074321
8972080547
8972086162
8972091228
8972097514
8972104350
8972111186
8972117717
8972122722
8972129802
8972136516
8972142253
8972148662
8972154948
8972160747
8972167705
8972174174
8972179973
8972186198
8972190837
8972198039
8972204753
8972210978
8972215922
8972222026
8972227458
8972235881
8972243388
8972249430
8972256571
8972261210
8972267985
8972273661
8972282206
8972289164
8972295146
8972301982
8972308756
8972314799
8972319865
8972326579
8972332499
8972342204
8972349711
8972356364
8972364054
8972369730
8972377543
8972382365
8972390421
8972397745
8972403178
8972410868
8972414957
8972423929
8972429423
8972436075
8972443400
8972449686
8972454935
8972460917
8972469706
8972474222
8972481852
8972488627
8972494913
8972502237
8972507914
8972513529
8972520670
8972527262
8972533670
8972540201
8972547342
8972552896
8972559427
8972566263
8972571390
8972578775
8972585611
8972592874
8972597574
8972606973
8972615396
8972622537
8972628336
8972635111
8972641885
8972649210
8972655801
8972661172
8972668985
8972673013
8972681863
8972688760
8972695108
8972701517
8972708047
8972715738
8972721048
8972728982
8972734414
8972743387
8972747537
8972755777
8972762124
8972768045
8972774637
8972780679
8972785501
8972790200
8972796975
8972802224
8972810342
8972815774
8972821756
8972827188
8972833169
8972839944
8972844155
8972851235
8972856057
8972863870
8972870156
8972874429
8972880715
8972886758
8972893899
8972900430
8972906106
8972912148
8972918374
8972924783
8972930398
8972938027
8972944741
8972950600
8972956948
8972962930
8972970864
8972977517
8972983437
8972989724
8972995522
8973000832
8973004861
8973010903
8973015359
8973023842
8973027932
8973035744
8973041054
8973046486
8973051674
8973056435
8973063393
8973069375
8973074746
8973080117
8973085427
8973091530
8973095559
8973102822
8973108803
8973113869
8973120217
8973125710
8973132302
8973139321
8973145058
8973151894
8973157753
8973162148
8973167885
8973175026
8973178017
8973186806
8973192848
8973198586
8973205361
8973211220
8973216713
8973222572
8973228249
8973235634
8973241493
8973246742
8973253212
8973259377
8973265785
8973270668
8973277809
8973283791
8973289650
8973297096
8973303810
8973310280
8973314857
8973322487
8973328773
8973334511
8973337990
8973346962
8973354286
8973360389
8973366615
8973371437
8973379249
8973382789
8973391090
8973397926
8973404579
8973411232
8973417579
8973423439
8973429664
8973434181
8973441932
8973448951
8973454933
8973462501
8973468849
8973472389
8973481483
8973488258
8973494361
8973500282
8973505164
8973512245
8973519630
8973525550
8973533485
8973539710
8973545264
8973550025
8973556678
8973561744
8973568885
8973573035
8973582923
8973588050
8973593787
8973600013
8973606177
8973612647
8973618995
8973625281
8973630836
8973638465
8973645484
8973651648
8973657813
8973662696
8973670936
8973676612
8973682593
8973688758
8973695166
8973701026
8973707312
8973713843
8973717749
8973725196
8973732032
8973738257
8973743079
8973749182
8973757117
8973764197
8973770239
8973775061
8973783118
8973788977
8973795386
8973801611
8973809729
8973816199
8973822669
8973830298
8973837256
8973842566
8973849890
8973855383
8973865515
8973871374
8973878088
8973885229
8973891028
8973898230
8973904394
8973910986
8973917639
8973923254
8973929541
8973935644
8973941076
8973946631
8973949865
8973957983
8973964392
8973970617
8973976721
8973981237
8973987219
8973990393
8973999426
8974005896
8974010168
8974017797
8974021215
8974029455
8974033483
8974043371
8974048254
8974054724
8974060400
8974064916
8974070532
8974076940
8974084997
8974090246
8974096166
8974102148
8974107702
8974113012
8974118383
8974126135
8974130773
8974138097
8974142736
8974148046
8974153112
8974158544
8974165807
8974170812
8974176000
8974182226
8974187902
8974191869
8974197729
8974204137
8974209203
8974216649
8974222692
8974230504
8974236181
8974242101
8974250097
8974256566
8974262060
8974267919
8974273778
8974278051
8974283788
8974290502
8974296483
8974301610
8974307531
8974311925
8974318090
8974324987
8974331761
8974338536
8974344396
8974350011
8974354711
8974360570
8974366612
8974373387
8974379491
8974383519
8974390172
8974394628
8974401402
8974406896
8974414586
8974421056
8974426854
8974432835
8974439183
8974444188
8974450780
8974459325
8974463109
8974471532
8974478062
8974483922
8974489842
8974494298
8974500584
8974507603
8974514805
8974519871
8974526341
8974532628
8974538426
8974545140
8974552586
8974559300
8974563817
8974570530
8974577977
8974585484
8974591771
8974598545
8974605442
8974612706
8974617833
8974624302
8974630955
8974637059
8974645115
8974651402
8974657688
8974663059
8974669834
8974675511
8974680454
8974688755
8974694981
8974700718
8974707615
8974713902
8974719944
8974725254
8974734348
8974739353
8974747410
8974752415
8974758396
8974765354
8974769871
8974778721
8974782505
8974790440
8974798008
8974804966
8974815220
8974822117
8974829624
8974836277
8974843296
8974849460
8974855747
8974862217
8974869724
8974876438
8974883030
8974888218
8974894626
8974899570
8974906528
8974913120
8974919895
8974927463
8974934543
8974941013
8974945835
8974954196
8974961948
8974971774
8974978610
8974983859
8974991062
8974998020
8975005039
8975009860
8975017185
8975024020
8975031284
8975036655
8975044528
8975049838
8975056369
8975063327
8975069553
8975074680
8975082736
8975089328
8975095248
8975101047
8975107028
8975112948
8975117648
8975126559
8975132785
8975137546
8975144015
8975150485
8975158603
8975164157
8975171664
8975179538
8975185580
8975191195
8975195956
8975203402
8975210788
8975216708
8975222079
8975228183
8975234347
8975239230
8975246188
8975249911
8975256991
8975263461
8975269076
8975274203
8975279940
8975285739
8975291720
8975297335
8975301791
8975308505
8975313570
8975319552
8975324862
8975330172
8975336153
8975341586
8975346163
8975352267
8975357821
8975363009
8975370455
8975376376
8975381380
8975386446
8975392123
8975396578
8975402071
8975408907
8975413912
8975420748
8975426180
8975431429
8975436556
8975442171
8975448336
8975453829
8975460299
8975466402
8975471895
8975477144
8975481844
8975489412
8975496370
8975501986
8975508089
8975512606
8975520357
8975526033
8975531526
8975537264
8975542940
8975550142
8975553377
8975561495
8975564485
8975573274
8975580232
8975585298
8975591829
8975595735
8975606233
8975612886
8975617952
8975624910
8975632051
8975637788
8975645235
8975650240
8975658907
8975664094
8975671541
8975679292
8975685762
8975692171
8975698823
8975704805
8975712129
8975719026
8975724763
8975731050
8975738435
8975743806
8975751863
8975759431
8975765840
8975771150
8975777436
8975782747
8975789155
8975796479
8975803926
8975809846
8975815828
8975822175
8975829133
8975835481
8975843293
8975849641
8975855439
8975861054
8975867280
8975873567
8975879304
8975886994
8975891999
8975899201
8975905915
8975911713
8975918610
8975924775
8975930695
8975936066
8975944611
8975950532
8975957001
8975962617
8975967011
8975976166
8975981293
8975988129
8975991852
8976001618
8976008881
8976014313
8976021393
8976028412
8976034333
8976040680
8976047150
8976054230
8976059601
8976069855
8976074128
8976082306
8976088837
8976095246
8976101715
8976106964
8976113678
8976121186
8976128693
8976135529
8976141999
8976148896
8976157013
8976162567
8976169769
8976176483
8976186615
8976192902
8976198090
8976205170
8976212555
8976221954
8976226166
8976235016
8976241119
8976247223
8976253998
8976260529
8976267792
8976273712
8976279938
8976286468
8976291778
8976298797
8976305145
8976312591
8976319183
8976325531
8976331085
8976335785
8976342193
8976347442
8976354889
8976360992
8976366729
8976372406
8976378509
8976384491
8976390350
8976397369
8976403472
8976410369
8976416107
8976421722
8976427703
8976434844
8976440093
8976446319
8976452117
8976458221
8976463226
8976469329
8976474700
8976481902
8976487701
8976493743
8976499114
8976503936
8976509063
8976514861
8976521819
8976527862
8976532134
8976538970
8976543975
8976549407
8976555267
8976561248
8976566924
8976572723
8976577666
8976583037
8976589019
8976595550
8976601409
8976607574
8976613067
8976618499
8976624297
8976629912
8976636199
8976642974
8976647490
8976654143
8976658538
8976665679
8976670745
8976678679
8976683928
8976689849
8976697112
8976702178
8976708709
8976714141
8976720366
8976725676
8976732756
8976738127
8976744292
8976750090
8976758269
8976763884
8976771575
8976778472
8976785430
8976792876
8976798064
8976807097
8976813323
8976820769
8976827422
8976832182
8976839995
8976843474
8976851408
8976858916
8976863859
8976870512
8976875639
8976882780
8976889372
8976897307
8976903044
8976910063
8976917509
8976921171
8976929594
8976933012
8976943266
8976949553
8976954435
8976961882
8976966887
8976974211
8976977812
8976988737
8976994719
8977001554
8977007048
8977012358
8977020597
8977026335
8977033659
8977041288
8977046537
8977053678
8977059294
8977065824
8977069059
8977078642
8977086881
8977092436
8977098966
8977104032
8977111356
8977117948
8977123869
8977130521
8977136747
8977143217
8977148710
8977156217
8977162809
8977169767
8977177335
8977182584
8977189664
8977194913
8977201566
8977207242
8977215970
8977222928
8977229520
8977235746
8977240934
8977247587
8977253812
8977261564
8977269193
8977274564
8977280362
8977288541
8977292813
8977303128
8977312650
8977319303
8977325772
8977332730
8977338407
8977345487
8977352811
8977359769
8977366361
8977374356
8977380277
8977387906
8977395474
8977401578
8977407742
8977414395
8977420560
8977425992
8977432828
8977436063
8977444546
8977450101
8977457547
8977462857
8977469388
8977475796
8977481717
8977488003
8977495083
8977501187
8977508633
8977515286
8977520779
8977526578
8977532803
8977539639
8977544583
8977551358
8977558255
8977563748
8977569485
8977576016
8977582791
8977587551
8977594632
8977600064
8977605557
8977611050
8977617459
8977623562
8977630093
8977635403
8977640774
8977645840
8977652371
8977656765
8977663418
8977668911
8977674099
8977679714
8977684963
8977690640
8977696072
8977702969
8977709011
8977714016
8977719692
8977725430
8977731899
8977734951
8977744350
8977748989
8977754360
8977759365
8977763576
8977770595
8977777798
8977783230
8977788906
8977794582
8977801174
8977807766
8977813076
8977819607
8977825344
8977830349
8977837307
8977842800
8977849514
8977855312
8977862026
8977867702
8977874599
8977881252
8977887722
8977894008
8977898708
8977906826
8977912502
8977919155
8977927028
8977932949
8977938137
8977943996
8977952541
8977958156
8977964626
8977972011
8977978725
8977984706
8977990199
8977997646
8978004848
8978010646
8978017421
8978022365
8978031032
8978036525
8978044215
8978050624
8978056422
8978062526
8978068873
8978075893
8978081325
8978089931
8978095363
8978103175
8978109584
8978116420
8978121669
8978128016
8978135646
8978140101
8978147303
8978153773
8978159572
8978163661
8978170924
8978178431
8978185328
8978192714
8978197718
8978204493
8978210047
8978214808
8978219752
8978229029
8978234034
8978239833
8978246729
8978251185
8978257899
8978264979
8978270777
8978276698
8978284937
8978288538
8978296351
8978302943
8978309290
8978317530
8978323817
8978329676
8978334742
8978343104
8978349696
8978354639
8978363184
8978368555
8978376917
8978380945
8978389124
8978395838
8978402247
8978409998
8978417566
8978423914
8978429224
8978437586
8978442774
8978452417
8978458033
8978465723
8978473597
8978480494
8978487818
8978492151
8978501123
8978508570
8978515406
8978524011
8978529261
8978536829
8978543115
8978548670
8978552088
8978560877
8978567407
8978573572
8978579187
8978583765
8978590601
8978596704
8978602991
8978608667
8978614465
8978620447
8978626733
8978632959
8978638452
8978644556
8978648340
8978656030
8978659936
8978667078
8978672327
8978678857
8978686670
8978692468
8978698144
8978704309
8978710595
8978715783
8978721277
8978730005
8978736230
8978742029
8978747888
8978753259
8978758752
8978762719
8978769006
8978774560
8978781579
8978784692
8978791955
8978797509
8978803064
8978809472
8978815515
8978820825
8978827233
8978832604
8978837731
8978843347
8978849328
8978855859
8978861596
8978866601
8978871362
8978877648
8978881982
8978890832
8978896447
8978902001
8978907067
8978911523
8978918176
8978921593
8978929467
8978936730
8978941003
8978948388
8978951745
8978960046
8978965234
8978972191
8978978783
8978984276
8978991540
8978997643
8979003808
8979010216
8979017479
8979022728
8979028710
8979034630
8979039757
8979045617
8979052086
8979058251
8979064660
8979070946
8979075402
8979081627
8979088158
8979097008
8979101586
8979108727
8979115502
8979121422
8979127098
8979132958
8979140038
8979146568
8979152489
8979157799
8979164452
8979169762
8979177940
8979184532
8979190758
8979196617
8979203453
8979210289
8979216087
8979223228
8979229576
8979235252
8979241722
8979247948
8979254478
8979261436
8979266624
8979271324
8979279381
8979286461
8979292808
8979299095
8979303795
8979309898
8979316124
8979322777
8979327965
8979336937
8979343101
8979349388
8979356468
8979361412
8979370445
8979377647
8979383445
8979390403
8979397056
8979401878
8979406883
8979415794
8979422813
8979428916
8979436424
8979441368
8979449180
8979454124
8979460349
8979466392
8979474449
8979480552
8979486594
8979492637
8979498985
8979505821
8979512901
8979518577
8979524924
8979531699
8979539634
8979547141
8979554343
8979560447
8979568809
8979575034
8979583945
8979590964
8979598777
8979605735
8979612693
8979619773
8979625083
8979633506
8979639975
8979646323
8979654258
8979659629
8979668479
8979674765
8979680930
8979687583
8979694663
8979701987
8979708640
8979714072
8979720053
8979726096
8979732566
8979738425
8979744345
8979749045
8979757773
8979763327
8979768881
8979775168
8979779379
8979786093
8979792685
8979799643
8979807883
8979812582
8979821005
8979825949
8979833578
8979840048
8979845785
8979852560
8979857382
8979865073
8979870688
8979876547
8979883444
8979889364
8979895224
8979900900
8979906698
8979913656
8979919150
8979925009
8979929342
8979935873
8979941183
8979946188
8979952414
8979957785
8979964621
8979969809
8979975363
8979980551
8979986471
8979993429
8979998495
8980004232
8980010092
8980015585
8980021749
8980024923
8980033346
8980039450
8980045431
8980051840
8980056661
8980063741
8980069784
8980074300
8980081808
8980088339
8980094198
8980101400
8980104757
8980113546
8980119344
8980125448
8980132162
8980136556
8980144063
8980148214
8980154989
8980161581
8980168477
8980174032
8980180501
8980186239
8980193380
8980198812
8980204793
8980212056
8980216878
8980224569
8980229512
8980237203
8980243001
8980248861
8980255330
8980261556
8980267598
8980273885
8980280355
8980287069
8980293660
8980299642
8980305928
8980312520
8980319478
8980328084
8980334126
8980339925
8980346517
8980351521
8980358479
8980364888
8980371358
8980376424
8980383992
8980390523
8980396260
8980403645
8980408589
8980416219
8980421468
8980428975
8980434712
8980440572
8980447835
8980454182
8980461568
8980467610
8980474202
8980481282
8980487691
8980493672
8980499226
8980508320
8980515278
8980521748
8980527485
8980533711
8980540974
8980546040
8980553730
8980560322
8980566426
8980573323
8980579365
8980585347
8980591816
8980598835
8980605610
8980611470
8980618061
8980624043
8980629658
8980637348
8980643757
8980651875
8980658283
8980664326
8980672077
8980677265
8980684712
8980690632
8980699909
8980706257
8980712543
8980718647
8980724079
8980731342
8980738117
8980745441
8980753376
8980759724
8980766315
8980773762
8980779987
8980786884
8980793232
8980799335
8980808429
8980815265
8980822223
8980830341
8980837116
8980845295
8980851581
8980857196
8980863483
8980868000
8980874958
8980880878
8980886188
8980892780
8980898883
8980905414
8980909870
8980917438
8980923480
8980931354
8980937091
8980943256
8980950946
8980955829
8980963641
8980967304
8980975848
8980983051
8980988055
8980994098
8980998981
8981006854
8981011371
8981018695
8981024982
8981030902
8981037189
8981041827
8981047931
8981053668
8981059161
8981065875
8981070270
8981076190
8981081439
8981089007
8981094684
8981100665
8981105975
8981110248
8981117999
8981122394
8981127581
8981134173
8981140277
8981146258
8981152179
8981157244
8981164447
8981168719
8981175982
8981181720
8981187091
8981193743
8981200091
8981205645
8981211749
8981217242
8981222979
8981228655
8981235064
8981241046
8981247271
8981254046
8981258563
8981266558
8981271929
8981278216
8981284380
8981288958
8981297015
8981303667
8981308855
8981315569
8981322283
8981328204
8981335589
8981340899
8981348101
8981353472
8981360186
8981365862
8981372515
8981379351
8981385332
8981392779
8981399614
8981405169
8981410235
8981419207
8981423723
8981431475
8981438067
8981444292
8981450701
8981455523
8981461321
8981466631
8981475054
8981478899
8981486345
8981492144
8981497881
8981504473
8981509844
8981517656
8981523821
8981530901
8981536577
8981542436
8981548479
8981554888
8981561174
8981567888
8981575090
8981581438
8981587175
8981590715
8981599443
8981606645
8981613115
8981619340
8981624406
8981631731
8981638383
8981644731
8981650774
8981657243
8981663774
8981670061
8981676652
8981681596
8981688615
8981696123
8981702348
8981709367
8981715532
8981721757
8981727128
8981734330
8981739518
8981748552
8981754411
8981760759
8981766496
8981772599
8981779252
8981785783
8981792863
8981797990
8981806352
8981809953
8981819657
8981825822
8981832536
8981840348
8981846269
8981852433
8981859086
8981866898
8981872392
8981879228
8981886124
8981893021
8981900773
8981904862
8981912308
8981919205
8981925736
8981929459
8981939286
8981946366
8981953446
8981959489
8981965653
8981971635
8981978165
8981989640
8981997147
8982004410
8982010392
8982017411
8982024247
8982033768
8982042008
8982048966
8982054886
8982061417
8982067276
8982072159
8982079789
8982085892
8982092606
8982099320
8982105973
8982113663
8982116471
8982126541
8982131546
8982137039
8982144608
8982149246
8982156204
8982162796
8982168350
8982175064
8982181473
8982186905
8982193131
8982198685
8982203323
8982211136
8982217239
8982223587
8982229263
8982235306
8982241959
8982246292
8982254043
8982260208
8982266495
8982272049
8982276993
8982283584
8982290176
8982295425
8982300552
8982306228
8982313614
8982319229
8982324722
8982331009
8982336807
8982343155
8982349075
8982354873
8982361526
8982367752
8982373367
8982378921
8982385330
8982390518
8982396011
8982401443
8982407852
8982413650
8982420242
8982426345
8982432632
8982437271
8982444045
8982450271
8982455947
8982462661
8982468704
8982473830
8982480544
8982485488
8982492141
8982497878
8982503371
8982510757
8982516616
8982521560
8982527846
8982532607
8982540420
8982543716
8982553908
8982560195
8982565078
8982571486
8982577468
8982583510
8982589980
8982597609
8982602797
8982611525
8982618056
8982624343
8982631423
8982638930
8982646682
8982652785
8982659072
8982666091
8982672377
8982678237
8982683242
8982691420
8982696974
8982702773
8982709792
8982714553
8982722365
8982727248
8982736098
8982739943
8982747206
8982753005
8982759230
8982766005
8982771925
8982779738
8982784621
8982792311
8982798964
8982804884
8982811781
8982818129
8982824843
8982830092
8982839064
8982844984
8982850050
8982857985
8982863173
8982871596
8982879103
8982885878
8982893385
8982900404
8982907179
8982913282
8982919874
8982927443
8982933241
8982939589
8982946608
8982951857
8982958021
8982965956
8982971205
8982978041
8982983961
8982989942
8982997084
8983002394
8983009840
8983016493
8983023878
8983027418
8983035536
8983042494
8983048353
8983054823
8983062391
8983069227
8983076063
8983082777
8983088453
8983096021
8983100050
8983110242
8983116346
8983122816
8983129285
8983136182
8983143934
8983151075
8983156995
8983164625
8983171827
8983176160
8983184217
8983190564
8983196485
8983203931
8983210157
8983215955
8983221814
8983228345
8983233899
8983239942
8983247388
8983251355
8983258191
8983263684
8983270276
8983276258
8983281873
8983287488
8983293836
8983300183
8983306165
8983311353
8983315869
8983323682
8983329236
8983337110
8983343091
8983348584
8983354199
8983360303
8983367078
8983371411
8983379102
8983384656
8983392529
8983399792
8983405225
8983410657
8983414990
8983422192
8983428296
8983434766
8983441907
8983447827
8983453564
8983460278
8983466321
8983471936
8983479443
8983485608
8983491406
8983497021
8983503369
8983508557
8983513684
8983520642
8983524670
8983531384
8983536145
8983544995
8983550488
8983555676
8983560742
8983566784
8983571972
8983578808
8983584790
8983590283
8983596630
8983604321
8983609814
8983615734
8983620983
8983626599
8983634289
8983638867
8983645702
8983651745
8983657482
8983664318
8983669079
8983676281
8983682140
8983687939
8983694347
8983700329
8983707348
8983712658
8983719738
8983726391
8983732189
8983739330
8983745678
8983754345
8983761059
8983766857
8983772777
8983779491
8983786388
8983791393
8983797741
8983803905
8983810619
8983816112
8983822704
8983829357
8983835949
8983841625
8983848522
8983855907
8983860912
8983866710
8983871715
8983880077
8983886180
8983891979
8983899181
8983904125
8983911205
8983916149
8983924266
8983929759
8983937084
8983943370
8983950694
8983957652
8983961253
8983969066
8983976146
8983982799
8983990794
8983997386
8984004039
8984009471
8984017284
8984020885
8984030040
8984037364
8984042857
8984050670
8984054759
8984062816
8984071788
8984077891
8984084483
8984089366
8984097178
8984103526
8984109691
8984115916
8984122325
8984128733
8984136424
8984142344
8984148692
8984155223
8984163279
8984170298
8984175303
8984182933
8984187815
8984194224
8984201060
8984207957
8984213206
8984221446
8984226939
8984235301
8984241953
8984250193
8984256724
8984262644
8984271494
8984277110
8984285593
8984292307
8984297800
8984305857
8984312510
8984318857
8984325632
8984332224
8984337351
8984343210
8984349924
8984356760
8984362681
8984367441
8984374949
8984379038
8984386240
8984393259
8984398874
8984405954
8984411448
8984417612
8984423594
8984428782
8984433115
8984440989
8984447519
8984453501
8984459909
8984464731
8984471445
8984477426
8984485178
8984490488
8984496958
8984502512
8984507517
8984514963
8984518930
8984527475
8984532602
8984539133
8984545664
8984551706
8984558359
8984562814
8984570383
8984575388
8984583444
8984588815
8984594614
8984600168
8984606393
8984612497
8984618051
8984624399
8984629465
8984636178
8984641244
8984646310
8984654367
8984659311
8984664377
8984669443
8984675363
8984680490
8984686410
8984694101
8984700631
8984705697
8984710519
8984715890
8984722055
8984726327
8984734079
8984739267
8984744332
8984750985
8984755197
8984762277
8984766244
8984773080
8984777597
8984785897
8984791268
8984797067
8984802865
8984809823
8984816110
8984821176
8984826852
8984833260
8984839547
8984845956
8984849191
8984858773
8984865243
8984872140
8984878060
8984883126
8984891000
8984894418
8984902596
8984909798
8984916817
8984922311
8984929452
8984936410
8984939889
8984948250
8984954659
8984960946
8984967843
8984972725
8984980050
8984983712
8984992684
8984998909
8985005196
8985010689
8985016182
8985023690
8985029549
8985036080
8985043221
8985049630
8985055794
8985061165
8985068306
8985075569
8985082955
8985089974
8985096993
8985103157
8985108467
8985115975
8985121041
8985130013
8985137032
8985143379
8985149422
8985155525
8985161934
8985166206
8985174995
8985179939
8985186226
8985193428
8985199470
8985204781
8985211311
8985217842
8985224251
8985231575
8985237556
8985243599
8985247810
8985256721
8985264717
8985271126
8985276619
8985281807
8985289131
8985294014
8985302070
8985309150
8985315254
8985322517
8985327400
8985334663
8985339424
8985347297
8985353584
8985360237
8985367256
8985373664
8985378364
8985385688
8985392341
8985399665
8985407295
8985412910
8985419929
8985426765
8985433112
8985438606
8985446357
8985450813
8985460822
8985467048
8985473396
8985480659
8985488166
8985493781
8985500312
8985508613
8985512458
8985519660
8985526252
8985532600
8985538276
8985543098
8985551764
8985557319
8985563361
8985570441
8985575263
8985581855
8985585334
8985595160
8985600959
8985606757
8985613715
8985618537
8985625434
8985630011
8985638312
8985644110
8985650092
8985656501
8985662726
8985668219
8985675299
8985680670
8985687201
8985693549
8985699835
8985706732
8985713568
