9439987186
9439992496
9439997989
9440003543
9440008792
9440013797
9440019656
9440024417
9440027957
9440033877
9440039004
9440044070
9440048892
9440053897
9440059390
9440064090
9440070193
9440075992
9440081607
9440087283
9440094546
9440101138
9440104983
9440113284
9440120486
9440126223
9440132754
9440140689
9440147097
9440154666
9440160891
9440168032
9440173281
9440180728
9440188479
9440195071
9440202334
9440209658
9440216006
9440223940
9440229617
9440237734
9440244875
9440249697
9440257937
9440264407
9440271731
9440279177
9440286135
9440293215
9440299563
9440306399
9440314028
9440320437
9440330080
9440336062
9440343386
9440351992
9440356875
9440365114
9440371889
9440379091
9440386416
9440393190
9440400759
9440407595
9440415834
9440423037
9440430483
9440438600
9440445558
9440452150
9440460329
9440467836
9440474489
9440484194
9440490724
9440498659
9440505068
9440512087
9440519777
9440529176
9440536501
9440543031
9440548952
9440557253
9440562318
9440571230
9440579774
9440586610
9440593568
9440601381
9440609498
9440616823
9440623720
9440632509
9440637697
9440646791
9440654481
9440660951
9440666871
9440673463
9440681337
9440686586
9440697816
9440707093
9440714357
9440721986
9440730653
9440738404
9440744630
9440752687
9440760255
9440768800
9440775941
9440783570
9440790956
9440799500
9440805360
9440811036
9440819764
9440823548
9440833558
9440842591
9440847840
9440857301
9440864075
9440872315
9440880372
9440887879
9440896790
9440903565
9440911072
9440919800
9440926942
9440934083
9440939698
9440949952
9440957276
9440964783
9440972840
9440979554
9440986756
9440992310
9441002381
9441009705
9441016419
9441024170
9441032044
9441038575
9441047058
9441052796
9441060364
9441069397
9441078613
9441086731
9441094422
9441102417
9441109863
9441116760
9441125366
9441133484
9441142883
9441148621
9441157104
9441163269
9441173462
9441177429
9441188110
9441195373
9441203674
9441213440
9441221069
9441230591
9441238708
9441247314
9441255005
9441263000
9441270019
9441278686
9441286438
9441294738
9441301635
9441307495
9441316711
9441324035
9441332702
9441340881
9441348022
9441355651
9441363220
9441371948
9441378051
9441388244
9441395751
9441402831
9441409240
9441417785
9441425292
9441432006
9441442321
9441448608
9441456420
9441463805
9441470031
9441477721
9441487060
9441493407
9441505492
9441511474
9441519958
9441526427
9441534728
9441542724
9441551085
9441558165
9441564391
9441574096
9441581481
9441587767
9441591735
9441602355
9441611266
9441619078
9441627257
9441632872
9441642089
9441650145
9441658202
9441665831
9441673461
9441681883
9441687804
9441695616
9441699584
9441710143
9441719542
9441728270
9441734312
9441745421
9441751891
9441759337
9441767821
9441775328
9441785460
9441792662
9441800291
9441808470
9441813902
9441823179
9441831846
9441840208
9441848448
9441856016
9441862425
9441870482
9441878111
9441886656
9441895933
9441902220
9441912107
9441918760
9441926512
9441932371
9441943113
9441947691
9441959898
9441966368
9441974912
9441980589
9441988767
9441996519
9442004881
9442012266
9442019590
9442026426
9442034116
9442040952
9442049497
9442056394
9442064085
9442071287
9442079099
9442087705
9442095090
9442104673
9442112363
9442119871
9442128293
9442136045
9442143918
9442152097
9442161496
9442168760
9442177121
9442184507
9442192563
9442200620
9442207334
9442216001
9442223874
9442231992
9442240476
9442247861
9442255734
9442263791
9442270688
9442278073
9442283811
9442293088
9442299558
9442307736
9442317563
9442322934
9442330624
9442339169
9442345456
9442353574
9442360532
9442371457
9442381650
9442386594
9442393613
9442400510
9442407773
9442414181
9442419125
9442429623
9442435666
9442440426
9442449032
9442456173
9442462460
9442468258
9442473263
9442482235
9442487973
9442494931
9442501156
9442507138
9442513668
9442518429
9442525936
9442530392
9442537594
9442542294
9442551266
9442557064
9442564144
9442570675
9442576290
9442579830
9442590145
9442594357
9442604244
9442611569
9442617916
9442623898
9442630428
9442635738
9442643429
9442651302
9442661495
9442667538
9442674374
9442681454
9442688229
9442695370
9442701229
9442709469
9442720943
9442727108
9442734676
9442743160
9442749752
9442755672
9442764217
9442769832
9442779903
9442786373
9442794124
9442799434
9442808223
9442813900
9442820552
9442825313
9442832210
9442838985
9442845394
9442851802
9442859004
9442866268
9442873348
9442881343
9442887325
9442894954
9442900508
9442907405
9442914668
9442922054
9442927364
9442932491
9442942805
9442947871
9442955989
9442963374
9442969600
9442976497
9442982967
9442989619
9442997249
9443004878
9443013118
9443018977
9443027339
9443033137
9443039546
9443043635
9443054561
9443061580
9443067805
9443071284
9443082026
9443085627
9443094722
9443100642
9443110957
9443115229
9443124568
9443131587
9443137934
9443143305
9443151911
9443160090
9443166804
9443174861
9443181635
9443188960
9443195735
9443201716
9443209712
9443215510
9443224726
9443232722
9443238215
9443244501
9443250483
9443256281
9443262385
9443267573
9443278315
9443284357
9443289545
9443295038
9443301569
9443306513
9443313044
9443318903
9443325678
9443332026
9443336298
9443342096
9443348444
9443352594
9443358942
9443366938
9443373102
9443378046
9443384150
9443391840
9443397272
9443407282
9443415705
9443426630
9443432978
9443441584
9443449640
9443456903
9443464166
9443470575
9443476679
9443482355
9443488214
9443494074
9443499384
9443505060
9443511347
9443517084
9443523065
9443528864
9443534662
9443539789
9443546503
9443552057
9443559442
9443564386
9443571161
9443575983
9443583612
9443587518
9443595087
9443599969
9443605279
9443611505
9443616754
9443622064
9443627374
9443632806
9443638421
9443647088
9443650995
9443656915
9443662408
9443668573
9443672845
9443679010
9443685846
9443691705
9443698236
9443704339
9443710870
9443716241
9443722650
9443727777
9443735711
9443742181
9443748101
9443756036
9443762200
9443766595
9443774835
9443780389
9443787225
9443793572
9443799737
9443804742
9443811761
9443819329
9443823907
9443832146
9443836846
9443843316
9443851006
9443856377
9443864129
9443870660
9443877068
9443883355
9443889825
9443896172
9443902337
9443909417
9443915825
9443920647
9443928826
9443934807
9443941765
9443946221
9443953850
9443964043
9443970574
9443976983
9443982232
9443991448
9443995110
9444005425
9444012566
9444018669
9444026116
9444031853
9444038201
9444045525
9444052178
9444057793
9444066643
9444072991
9444079582
9444084343
9444091179
9444097588
9444104179
9444110649
9444117058
9444123222
9444128960
9444135490
9444142021
9444148552
9444155754
9444162163
9444167534
9444174309
9444180412
9444187004
9444194267
9444199211
9444205864
9444212272
9444219536
9444224602
9444231987
9444236809
9444245475
9444250358
9444257621
9444265373
9444271171
9444275932
9444283622
9444288444
9444296012
9444301017
9444310112
9444313468
9444322929
9444328910
9444334587
9444339408
9444346855
9444354362
9444359855
9444365287
9444372306
9444378349
9444385551
9444391349
9444398490
9444402152
9444410148
9444416435
9444423576
9444430289
9444436393
9444444022
9444448356
9444455253
9444460075
9444467887
9444473624
9444480277
9444485221
9444491874
9444498893
9444503348
9444510795
9444516715
9444523856
9444528434
9444534903
9444542106
9444547416
9444553702
9444560660
9444566764
9444573356
9444582389
9444589225
9444599540
9444606070
9444613211
9444618827
9444626273
9444633048
9444638724
9444645377
9444650687
9444657218
9444661856
9444667533
9444672843
9444678763
9444682669
9444689871
9444695548
9444701712
9444706412
9444712271
9444716788
9444722830
9444728812
9444734183
9444741812
9444745962
9444752859
9444756949
9444762625
9444766775
9444774222
9444778982
9444786856
9444792898
9444798208
9444803702
9444809378
9444814871
9444820120
9444826224
9444832083
9444837637
9444841665
9444847891
9444853567
9444858999
9444863150
9444871145
9444875235
9444881094
9444886099
9444892446
9444898123
9444903738
9444911917
9444918692
9444923880
9444928274
9444936636
9444941274
9444947439
9444952505
9444960134
9444964041
9444970144
9444975759
9444981191
9444987356
9444992849
9444999136
9445004873
9445010854
9445017263
9445025991
9445030752
9445037222
9445043935
9445050771
9445057424
9445063528
9445069631
9445075551
9445081228
9445087392
9445094839
9445100881
9445105215
9445111928
9445118276
9445124196
9445130422
9445135915
9445143972
9445149343
9445158132
9445163808
9445171132
9445177724
9445183278
9445189382
9445197744
9445207631
9445212453
9445218434
9445224355
9445231496
9445235890
9445243581
9445250112
9445256276
9445262319
9445268178
9445274159
9445281178
9445286000
9445293691
9445299550
9445306630
9445312795
9445318410
9445324452
9445329640
9445337880
9445343861
9445350331
9445356496
9445362294
9445368214
9445374623
9445380971
9445387013
9445393178
9445399281
9445405202
9445410939
9445416859
9445422535
9445429310
9445436696
9445442433
9445447621
9445452198
9445460133
9445466237
9445471791
9445478321
9445485096
9445491932
9445497914
9445503590
9445509510
9445515492
9445521412
9445528065
9445534413
9445539540
9445545582
9445551502
9445557606
9445563893
9445570179
9445578480
9445583546
9445590626
9445595631
9445603382
9445608753
9445615589
9445621082
9445628101
9445634022
9445640675
9445645801
9445652149
9445657337
9445662342
9445667835
9445676075
9445680530
9445687000
9445693043
9445698719
9445704456
9445709095
9445717212
9445723560
9445728382
9445734729
9445742664
9445747791
9445754871
9445762989
9445769642
9445776416
9445782581
9445789478
9445796497
9445802906
9445809558
9445816394
9445822315
9445827747
9445833667
9445838977
9445844165
9445849536
9445856922
9445861133
9445867481
9445871509
9445878223
9445882251
9445889331
9445895191
9445901172
9445907520
9445912830
9445918811
9445924121
9445928455
9445934009
9445941943
9445946216
9445951953
9445958362
9445963733
9445968127
9445974048
9445979541
9445987292
9445992663
9445997851
9446003161
9446008288
9446014209
9446019885
9446025439
9446029773
9446036792
9446041369
9446047290
9446052234
9446058093
9446063098
9446070666
9446075061
9446081103
9446087512
9446093066
9446096850
9446103137
9446111071
9446116015
9446122485
9446127429
9446133410
9446138415
9446144580
9446150866
9446157153
9446162341
9446168566
9446174914
9446180590
9446192858
9446197009
9446205737
9446212206
9446216418
9446224535
9446230212
9446238512
9446245226
9446251513
9446257311
9446265063
9446270678
9446277758
9446283129
9446289965
9446299669
9446304064
9446313646
9446319811
9446325976
9446332995
9446339892
9446348192
9446354845
9446361498
9446367174
9446373888
9446379564
9446385424
9446393724
9446398668
9446405870
9446411913
9446417955
9446422594
9446429552
9446435961
9446442797
9446447496
9446454210
9446458666
9446466539
9446471422
9446478929
9446484422
9446491258
9446496629
9446503832
9446509813
9446516588
9446522081
9446527391
9446534898
9446541551
9446547594
9446553697
9446560045
9446566759
9446573533
9446580797
9446586717
9446594041
9446600145
9446605516
9446612108
9446617723
9446624315
9446632188
9446638597
9446644395
9446650560
9446656053
9446662217
9446668748
9446673387
9446681016
9446687364
9446693528
9446698045
9446705064
9446711534
9446717210
9446725755
9446732774
9446737840
9446744615
9446750840
9446757066
9446761460
9446768296
9446776536
9446783128
9446789597
9446794053
9446801255
9446808823
9446816941
9446822068
9446830430
9446836350
9446843369
9446849778
9446856309
9446862412
9446868027
9446875474
9446880112
9446886826
9446892380
9446901597
9446907029
9446913987
9446922043
9446928269
9446934494
9446944565
9446951828
9446959397
9446965439
9446972031
9446978684
9446984970
9446991562
9446999497
9447017319
9447023911
9447030991
9447036850
9447043076
9447048508
9447054306
9447061264
9447067063
9447072312
9447077561
9447084396
9447090866
9447096542
9447103439
9447107468
9447114426
9447119064
9447126938
9447134201
9447140854
9447147507
9447153427
9447158798
9447164596
9447171432
9447177902
9447184799
9447190231
9447195785
9447202255
9447209335
9447215133
9447221054
9447226608
9447233444
9447239669
9447244186
9447250656
9447255844
9447262436
9447268173
9447274826
9447279769
9447285202
9447292526
9447298934
9447303512
9447310897
9447317794
9447323165
9447329635
9447337814
9447343795
9447350143
9447355087
9447361739
9447368575
9447374740
9447381393
9447387924
9447394271
9447400619
9447406295
9447412215
9447418868
9447426864
9447435165
9447443343
9447450851
9447457076
9447465255
9447474410
9447482406
9447488814
9447496505
9447502059
9447508834
9447515243
9447522628
9447530623
9447536788
9447542647
9447549483
9447555648
9447561812
9447569869
9447575057
9447583602
9447589522
9447595626
9447604415
9447611190
9447618086
9447625533
9447630599
9447638655
9447646651
9447653060
9447661910
9447667098
9447675215
9447681441
9447685896
9447693770
9447700362
9447707564
9447714766
9447719344
9447728133
9447731978
9447740889
9447749922
9447756758
9447763350
9447770369
9447776106
9447784224
9447791670
9447801008
9447807417
9447815107
9447819746
9447828596
9447837385
9447842939
9447851179
9447856733
9447862715
9447869490
9447872847
9447882124
9447889387
9447895430
9447901777
9447908064
9447914045
9447921308
9447928388
9447936140
9447941389
9447947920
9447952741
9447960859
9447968000
9447974409
9447981489
9447987348
9447994123
9447998701
9448007978
9448013410
9448020673
9448027753
9448035810
9448043561
9448050397
9448057783
9448064008
9448070966
9448076276
9448081220
9448088117
9448092389
9448099347
9448104474
9448108137
9448116620
9448123822
9448129865
9448136457
9448144025
9448149335
9448154340
9448163190
9448168561
9448175702
9448181134
9448188031
9448194135
9448201032
9448207929
9448213971
9448219770
9448224835
9448230390
9448236554
9448241742
9448247357
9448253095
9448257733
9448265180
9448270184
9448276227
9448278851
9448286603
9448291974
9448297955
9448303937
9448309247
9448313519
9448318707
9448324445
9448329816
9448336346
9448340619
9448347638
9448351605
9448358563
9448363629
9448369855
9448375653
9448383343
9448388959
9448394269
9448399457
9448404828
9448410260
9448415631
9448421917
9448426556
9448433270
9448437664
9448445050
9448447857
9448456280
9448461590
9448468060
9448474469
9448479962
9448485821
9448491253
9448496502
9448502056
9448509197
9448513653
9448520245
9448524273
9448530865
9448536846
9448541729
9448547039
9448556072
9448562420
9448569317
9448576275
9448582684
9448588421
9448595074
9448604107
9448611919
9448618999
9448625347
9448630901
9448636455
9448643230
9448649639
9448656109
9448663189
9448670086
9448677593
9448682415
9448690716
9448695904
9448704693
9448710552
9448717754
9448723858
9448729534
9448735393
9448742534
9448748821
9448755962
9448760967
9448767803
9448774761
9448780803
9448786663
9448793010
9448800029
9448806194
9448811382
9448817302
9448823284
9448829204
9448835674
9448840251
9448847453
9448852458
9448859660
9448864177
9448872112
9448876567
9448883159
9448887920
9448897258
9448903728
9448911235
9448917339
9448924419
9448929484
9448936137
9448943889
9448948588
9448956523
9448961040
9448968669
9448974895
9448980327
9448986735
9448994182
9449000712
9449007548
9449013408
9449019450
9449025370
9449031474
9449039714
9449046061
9449052226
9449058207
9449062907
9449068949
9449075480
9449081950
9449089823
9449095317
9449102091
9449108134
9449115885
9449119181
9449128275
9449134379
9449142069
9449148112
9449155619
9449162150
9449168559
9449175517
9449183939
9449191508
9449198710
9449206522
9449213053
9449218241
9449224650
9449230875
9449237345
9449244913
9449251322
9449256998
9449262858
9449269266
9449273661
9449280009
9449286539
9449293619
9449299418
9449304545
9449309427
9449316935
9449322855
9449327921
9449334452
9449341410
9449347513
9449353434
9449360941
9449365641
9449373758
9449376993
9449385721
9449391519
9449397928
9449403360
9449411722
9449416727
9449423258
9449431253
9449435648
9449442789
9449448099
9449454263
9449459879
9449465738
9449471719
9449477213
9449482950
9449489664
9449494791
9449501382
9449506387
9449513895
9449519022
9449525369
9449532327
9449537454
9449542947
9449549417
9449555765
9449561380
9449569375
9449575296
9449580789
9449585733
9449591592
9449597635
9449603616
9449609964
9449615030
9449622598
9449629129
9449635293
9449641275
9449647744
9449653848
9449660440
9449666299
9449673745
9449678689
9449684976
9449691568
9449696084
9449703347
9449709817
9449717202
9449726235
9449732949
9449739175
9449746743
9449754311
9449759438
9449769936
9449776650
9449784890
9449793435
9449801492
9449812539
9449819192
9449824563
9449832314
9449837502
9449844948
9449851540
9449858315
9449866311
9449872536
9449878213
9449883401
9449891457
9449899392
9449905434
9449912209
9449918496
9449924782
9449930031
9449938698
9449944008
9449950966
9449957924
9449963845
9449970375
9449975746
9449984291
9449991310
9449997170
9450003945
9450009987
9450016640
9450023720
9450028420
9450036781
9450043251
9450049904
9450056862
9450063088
9450068214
9450076271
9450084938
9450090126
9450096657
9450102943
9450107704
9450118629
9450124062
9450130348
9450137306
9450143043
9450149940
9450155922
9450161842
9450168861
9450173378
9450182167
9450187538
9450194252
9450202736
9450208046
9450215919
9450222023
9450229225
9450235939
9450242347
9450249733
9450256935
9450264137
9450269874
9450277626
9450285072
9450290931
9450301002
9450308814
9450317848
9450325111
9450332618
9450339393
9450346900
9450353614
9450359168
9450367408
9450371986
9450378944
9450385963
9450391456
9450396156
9450403907
9450410377
9450417396
9450423560
9450428931
9450435096
9450442054
9450446876
9450453895
9450459693
9450466651
9450473121
9450479468
9450484168
9450491065
9450497352
9450503577
9450510047
9450516211
9450522132
9450528235
9450532325
9450539588
9450545508
9450551612
9450558203
9450564307
9450571387
9450576758
9450582740
9450588538
9450595252
9450602881
9450609717
9450613806
9450621680
9450624487
9450632422
9450638037
9450644324
9450650000
9450657019
9450662756
9450668738
9450674658
9450681006
9450686621
9450694434
9450702063
9450706519
9450714392
9450718909
9450725317
9450729712
9450737097
9450743140
9450748144
9450752905
9450759863
9450765600
9450771948
9450776098
9450782446
9450788550
9450794836
9450800818
9450806433
9450812414
9450818091
9450823706
9450829504
9450837622
9450840796
9450849096
9450854467
9450861181
9450866796
9450873388
9450880590
9450887304
9450896215
9450902197
9450909765
9450914526
9450921423
9450929540
9450938207
9450944982
9450951635
9450959203
9450965063
9450971777
9450977026
9450981542
9450990636
9450996801
9451002416
9451008092
9451015356
9451022802
9451030126
9451035009
9451042272
9451047399
9451054723
9451061071
9451068273
9451075353
9451081701
9451088231
9451094701
9451100438
9451106908
9451112157
9451121068
9451126806
9451133153
9451139867
9451146276
9451153112
9451157872
9451165197
9451170812
9451179051
9451183751
9451192601
9451199132
9451204747
9451210851
9451217992
9451221959
9451230443
9451237401
9451243077
9451249364
9451256627
9451263341
9451269872
9451277196
9451283665
9451289952
9451296544
9451302403
9451309056
9451315282
9451323521
9451329869
9451336461
9451342442
9451348790
9451355076
9451361546
9451366978
9451373448
9451380833
9451387242
9451393895
9451400792
9451406407
9451411229
9451418675
9451425694
9451431797
9451436619
9451443882
9451448704
9451457371
9451462132
9451469517
9451475987
9451483067
9451489292
9451495640
9451502964
9451510349
9451517368
9451524815
9451533909
9451542088
9451549595
9451555576
9451562412
9451570164
9451575230
9451583591
9451590061
9451597080
9451602085
9451609348
9451616489
9451622166
9451629368
9451636448
9451641758
9451647251
9451654209
9451659580
9451666904
9451672336
9451677097
9451685337
9451691074
9451696445
9451701023
9451709324
9451715427
9451720737
9451726841
9451733799
9451739048
9451746067
9451752109
9451758701
9451765598
9451771762
9451779026
9451785068
9451791660
9451796421
9451803317
9451809482
9451815708
9451820224
9451827487
9451834201
9451839877
9451843723
9451850803
9451853366
9451861484
9451866977
9451873019
9451878818
9451884616
9451890353
9451895602
9451900119
9451906833
9451913669
9451920322
9451926486
9451933444
9451937533
9451945468
9451950717
9451957004
9451962619
9451969516
9451975009
9451979098
9451986117
9451989108
9451998141
9452004672
9452010104
9452016452
9452022067
9452027255
9452031710
9452039340
9452044650
9452052096
9452057162
9452062777
9452068270
9452074557
9452082553
9452089144
9452096102
9452103488
9452109896
9452115939
9452122286
9452129183
9452136202
9452146395
9452153170
9452157748
9452164767
9452169222
9452177340
9452183688
9452190218
9452196383
9452202303
9452208773
9452214938
9452222567
9452227145
9452235567
9452238741
9452247530
9452252535
9452260470
9452265902
9452272982
9452279574
9452285189
9452291048
9452298128
9452302767
9452309908
9452316439
9452323519
9452330050
9452336519
9452343233
9452349764
9452355623
9452361422
9452369966
9452376497
9452382173
9452388948
9452395784
9452400789
9452408724
9452413729
9452422579
9452427400
9452434602
9452442293
9452447847
9452454256
9452461031
9452468233
9452474580
9452480989
9452487154
9452493806
9452500154
9452506624
9452511385
9452519746
9452525484
9452532136
9452538545
9452543977
9452550508
9452557527
9452564546
9452570955
9452576997
9452583406
9452591279
9452597688
9452603120
9452609651
9452618379
9452624299
9452630525
9452636872
9452643708
9452649690
9452654695
9452663423
9452669221
9452676850
9452685273
9452691987
9452699128
9452705903
9452716340
9452721406
9452729829
9452736848
9452744904
9452750337
9452758027
9452766084
9452772431
9452778107
9452784638
9452790375
9452797578
9452805085
9452809907
9452817048
9452823456
9452830781
9452837189
9452843842
9452848664
9452855134
9452861603
9452868378
9452874421
9452880341
9452886506
9452892365
9452898774
9452905365
9452910126
9452917695
9452922333
9452930451
9452935089
9452942841
9452949128
9452954560
9452959748
9452967743
9452973603
9452980561
9452986237
9452993134
9452996308
9453007355
9453014740
9453021454
9453027802
9453034027
9453038544
9453045380
9453051788
9453057953
9453063568
9453070404
9453076874
9453083160
9453088104
9453095184
9453102325
9453108673
9453115265
9453119415
9453126495
9453130890
9453138397
9453142792
9453149811
9453154266
9453162079
9453167694
9453174286
9453178375
9453184845
9453190765
9453197418
9453203582
9453209381
9453215057
9453220550
9453226654
9453233612
9453238800
9453246063
9453251068
9453257720
9453263580
9453269256
9453275115
9453282073
9453287872
9453293609
9453300262
9453306671
9453313934
9453319610
9453324310
9453332610
9453339629
9453347015
9453353851
9453360687
9453368743
9453373321
9453381255
9453386626
9453394805
9453401031
9453407012
9453412994
9453418914
9453425139
9453431060
9453437530
9453444121
9453450347
9453454741
9453462127
9453466948
9453474456
9453481414
9453487029
9453493132
9453499846
9453505645
9453512297
9453516387
9453523223
9453529448
9453537993
9453543059
9453549224
9453556426
9453562590
9453568083
9453574431
9453581633
9453586272
9453593352
9453597808
9453605437
9453610564
9453618010
9453621489
9453631072
9453634245
9453642912
9453645842
9453654143
9453657134
9453666228
9453670378
9453680022
9453687041
9453693449
9453700224
9453708769
9453714323
9453721098
9453728422
9453734953
9453740629
9453746062
9453753203
9453759428
9453766630
9453773710
9453779875
9453786284
9453792265
9453798918
9453804106
9453812040
9453817778
9453824614
9453831205
9453837553
9453843779
9453849760
9453855619
9453861723
9453867948
9453874906
9453881132
9453887174
9453892362
9453898344
9453905790
9453912443
9453920377
9453925504
9453932951
9453940702
9453946073
9453953031
9453958524
9453967069
9453972746
9453980497
9453985258
9453991117
9453997892
9454004179
9454009611
9454017850
9454022855
9454031034
9454037748
9454044340
9454049711
9454058439
9454064725
9454071805
9454078458
9454084440
9454090482
9454096952
9454103116
9454108060
9454117093
9454122953
9454128873
9454133268
9454139554
9454146024
9454151883
9454158048
9454165067
9454169828
9454176236
9454180570
9454187284
9454191739
9454199307
9454204679
9454212247
9454215421
9454223721
9454229337
9454234403
9454241361
9454246487
9454252591
9454259183
9454264066
9454270474
9454275418
9454281766
9454288541
9454294217
9454298917
9454306973
9454310635
9454317227
9454321377
9454326687
9454331998
9454337552
9454346036
9454351163
9454355801
9454359891
9454367154
9454373196
9454377896
9454383816
9454389737
9454396573
9454402310
9454408596
9454415188
9454421475
9454426785
9454433133
9454438687
9454445156
9454452053
9454457058
9454463772
9454469815
9454474758
9454480374
9454487026
9454492947
9454500515
9454505886
9454511868
9454520290
9454524929
9454532803
9454538601
9454545437
9454550564
9454557034
9454564663
9454570339
9454575588
9454581081
9454587429
9454593838
9454598598
9454603603
9454612575
9454617397
9454623440
9454628994
9454634548
9454640529
9454646389
9454652614
9454658962
9454663845
9454670192
9454674892
9454681423
9454686306
9454691250
9454698696
9454705410
9454712062
9454716396
9454723049
9454729518
9454734890
9454742214
9454748561
9454755336
9454762050
9454768703
9454776088
9454783046
9454787929
9454796535
9454802394
9454809780
9454814235
9454821010
9454827602
9454834010
9454841151
9454848109
9454854762
9454861110
9454866115
9454872279
9454879420
9454884120
9454891688
9454896388
9454902736
9454909267
9454914455
9454921168
9454926356
9454931056
9454939845
9454945460
9454952723
9454958339
9454965175
9454970729
9454978541
9454985438
9454991603
9454997157
9455003871
9455008754
9455015406
9455021937
9455027919
9455033534
9455040736
9455047816
9455053981
9455058802
9455064967
9455072291
9455079920
9455088038
9455095362
9455101466
9455108058
9455115504
9455120081
9455127650
9455131983
9455140955
9455147791
9455153834
9455161646
9455166102
9455174525
9455178126
9455187220
9455192835
9455199549
9455203028
9455211085
9455217432
9455223719
9455230494
9455238489
9455244776
9455249170
9455257349
9455260401
9455269190
9455272730
9455282679
9455288843
9455296045
9455303003
9455308496
9455315943
9455322290
9455329309
9455334192
9455341883
9455348413
9455355005
9455358972
9455366419
9455373133
9455378565
9455385767
9455391748
9455399683
9455404932
9455411646
9455419641
9455428430
9455434778
9455441797
9455448328
9455455042
9455461511
9455467493
9455475244
9455480859
9455486902
9455493555
9455500207
9455507287
9455512475
9455519739
9455525293
9455531396
9455537439
9455542810
9455549157
9455556604
9455562219
9455567834
9455573205
9455579248
9455587549
9455592126
9455598230
9455604150
9455608300
9455615686
9455623193
9455627954
9455635278
9455641442
9455649377
9455656030
9455662927
9455670800
9455675988
9455683251
9455691247
9455697106
9455703942
9455708215
9455714501
9455718896
9455726891
9455731774
9455738671
9455744897
9455750024
9455755822
9455762780
9455767907
9455774682
9455781579
9455787560
9455793908
9455799889
9455806481
9455812340
9455818383
9455824242
9455830163
9455834801
9455842919
9455847680
9455854271
9455858971
9455867394
9455872887
9455879967
9455885643
9455891320
9455898949
9455904564
9455910424
9455917687
9455923546
9455930748
9455936730
9455942284
9455949364
9455954918
9455962059
9455967674
9455974694
9455980309
9455986595
9455993920
9456001122
9456008385
9456014183
9456020531
9456027062
9456033226
9456039879
9456044762
9456053429
9456060814
9456066307
9456072533
9456079491
9456085899
9456092186
9456100059
9456106346
9456112999
9456117760
9456124718
9456129661
9456138267
9456144493
9456151756
9456156517
9456165916
9456174522
9456181053
9456186790
9456193199
9456201927
9456207054
9456215721
9456222190
9456228172
9456233665
9456242698
9456249595
9456259971
9456266685
9456274681
9456282493
9456287925
9456295310
9456300926
9456311118
9456317222
9456324363
9456331077
9456337486
9456344199
9456350852
9456357566
9456364036
9456370261
9456377280
9456383018
9456390403
9456396140
9456400962
9456409141
9456413962
9456420859
9456425681
9456434104
9456438926
9456447104
9456452598
9456459250
9456464011
9456472495
9456478782
9456484397
9456489341
9456498130
9456505515
9456511313
9456514609
9456525107
9456532248
9456539756
9456544882
9456552939
9456561240
9456568137
9456574668
9456581381
9456588034
9456593039
9456601462
9456604819
9456614035
9456620261
9456627402
9456632773
9456639853
9456646689
9456652182
9456657919
9456664938
9456672079
9456676901
9456684286
9456690512
9456695822
9456702109
9456707663
9456714621
9456720236
9456726095
9456732382
9456738241
9456743063
9456748861
9456756308
9456761129
9456768698
9456773275
9456779806
9456784506
9456790487
9456796713
9456804586
9456809286
9456815939
9456820761
9456826559
9456831747
9456836386
9456841696
9456847799
9456854757
9456861166
9456867086
9456871725
9456880331
9456887472
9456893942
9456901632
9456906332
9456914205
9456919515
9456925680
9456932455
9456937887
9456944479
9456948812
9456954916
9456959859
9456965719
9456971212
9456976705
9456983053
9456988363
9456993917
9456999471
9457003988
9457009481
9457016195
9457021078
9457028158
9457033224
9457039388
9457046102
9457051656
9457057271
9457063375
9457069478
9457075032
9457080465
9457086019
9457091756
9457095845
9457105123
9457110982
9457115926
9457120565
9457128499
9457134236
9457140035
9457144795
9457151509
9457158040
9457164327
9457171346
9457175862
9457182698
9457187276
9457195577
9457201802
9457208638
9457214803
9457220845
9457225484
9457232259
9457238667
9457244588
9457251973
9457256917
9457265340
9457271382
9457278218
9457286397
9457292866
9457300130
9457305012
9457311970
9457319539
9457327229
9457332661
9457339619
9457346577
9457353230
9457360127
9457366658
9457372273
9457378865
9457389790
9457396565
9457403218
9457409871
9457414875
9457423176
9457433064
9457441792
9457448872
9457456562
9457461567
9457470051
9457476460
9457485371
9457492390
9457498615
9457505634
9457510517
9457518330
9457523335
9457532734
9457538227
9457547260
9457553974
9457560322
9457565327
9457571674
9457579487
9457585895
9457591328
9457597736
9457604145
9457610676
9457617328
9457623920
9457630268
9457636738
9457643207
9457649616
9457656086
9457661152
9457669513
9457674335
9457681842
9457689228
9457695026
9457699970
9457708454
9457714984
9457720539
9457725360
9457733051
9457738361
9457747821
9457751605
9457761981
9457765644
9457775104
9457780780
9457788165
9457794879
9457801959
9457806659
9457814594
9457819415
9457826556
9457833881
9457839130
9457845233
9457851947
9457858112
9457863788
9457869647
9457875690
9457882342
9457888263
9457894610
9457899371
9457907123
9457912921
9457919757
9457926349
9457932818
9457938983
9457945025
9457950641
9457956561
9457962237
9457969317
9457976703
9457982562
9457987933
9457994708
9458002215
9458007037
9458013690
9458022845
9458028949
9458034686
9458041278
9458047320
9458051959
9458058917
9458065264
9458074786
9458081256
9458087664
9458093951
9458100176
9458106341
9458110796
9458118304
9458123187
9458130389
9458135638
9458142107
9458147112
9458153338
9458156695
9458164141
9458170977
9458176775
9458181048
9458187517
9458194292
9458200213
9458206194
9458211809
9458217119
9458222857
9458228472
9458234270
9458241167
9458245684
9458253679
9458259234
9458265764
9458271807
9458277422
9458283953
9458290667
9458297075
9458302996
9458307512
9458315142
9458320024
9458325884
9458332292
9458338396
9458344988
9458351457
9458356584
9458364031
9458369280
9458374712
9458381426
9458388628
9458395830
9458401994
9458408464
9458415178
9458421709
9458428423
9458433244
9458441179
9458448442
9458453630
9458460954
9458465532
9458472734
9458479204
9458485612
9458493364
9458499711
9458506730
9458511613
9458518693
9458525529
9458531083
9458536271
9458544511
9458550920
9458557756
9458563920
9458570146
9458576432
9458582780
9458589555
9458596879
9458602433
9458609330
9458615068
9458620011
9458629289
9458636186
9458644364
9458650712
9458659013
9458666032
9458673295
9458677934
9458686234
9458697404
9458703080
9458710282
9458716691
9458723222
9458729447
9458735978
9458742448
9458748856
9458756669
9458761491
9458767838
9458774247
9458781632
9458788041
9458793412
9458799821
9458806412
9458812943
9458819596
9458826249
9458832902
9458839371
9458844925
9458851273
9458857499
9458864029
9458871232
9458877945
9458884659
9458889664
9458897538
9458902420
9458910599
9458915665
9458923783
9458928726
9458935990
9458940933
9458949295
9458954178
9458962906
9458968399
9458974930
9458982010
9458988114
9458993668
9459002274
9459007767
9459017288
9459020889
9459029617
9459035172
9459044388
9459049759
9459058426
9459065262
9459070206
9459075333
9459081985
9459088211
9459094253
9459102798
9459107681
9459114334
9459120865
9459127579
9459133072
9459139786
9459145889
9459151870
9459157730
9459163833
9459171219
9459176712
9459183364
9459189529
9459196548
9459201431
9459208206
9459214614
9459221145
9459226333
9459232559
9459239456
9459245620
9459251235
9459258254
9459263931
9459270767
9459278213
9459284499
9459292007
9459301528
9459307632
9459313796
9459320571
9459325149
9459330825
9459337173
9459342971
9459349319
9459356155
9459361098
9459367568
9459372695
9459379592
9459384536
9459389297
9459395644
9459401015
9459407363
9459412490
9459419082
9459435866
9459442702
9459448928
9459457229
9459465163
9459472182
9459477919
9459484511
9459490798
9459496718
9459502455
9459508925
9459513869
9459522170
9459527724
9459534011
9459539321
9459545729
9459551528
9459557814
9459564955
9459570143
9459576918
9459582778
9459589064
9459595961
9459601759
9459608595
9459612868
9459619948
9459624892
9459631422
9459638808
9459644362
9459651320
9459657973
9459664748
9459670851
9459676955
9459683851
9459690809
9459698378
9459705641
9459710402
9459717177
9459723097
9459729323
9459736891
9459741835
9459749830
9459756727
9459762526
9459768751
9459776320
9459781263
9459788221
9459796400
9459802870
9459807936
9459814161
9459820448
9459825086
9459832594
9459841139
9459846998
9459853163
9459861280
9459868788
9459874647
9459882215
9459888441
9459895765
9459906690
9459912183
9459919141
9459924818
9459929639
9459936964
9459944288
9459952222
9459955396
9459964490
9459969373
9459976697
9459981519
9459990430
9459996778
9460002454
9460010023
9460015760
9460021253
9460028455
9460033826
9460041028
9460047986
9460055188
9460059949
9460067212
9460071424
9460080091
9460086805
9460094251
9460100843
9460107312
9460112622
9460120008
9460125257
9460132520
9460139600
9460146192
9460153211
9460159741
9460164990
9460171460
9460177808
9460184155
9460190381
9460196851
9460205884
9460210889
9460218457
9460223279
9460230359
9460236035
9460244458
9460250256
9460259717
9460267346
9460273511
9460279980
9460288037
9460294324
9460300305
9460305920
9460312756
9460318371
9460325268
9460331189
9460336560
9460342297
9460349255
9460355114
9460362072
9460367566
9460374646
9460378857
9460385876
9460392102
9460398877
9460404431
9460411084
9460416271
9460423229
9460429028
9460435009
9460441784
9460446301
9460455090
9460460705
9460467846
9460474316
9460480358
9460487072
9460494518
9460501782
9460510571
9460517712
9460522778
9460531200
9460537975
9460542919
9460548901
9460556835
9460561047
9460567455
9460574718
9460580578
9460585338
9460590954
9460596386
9460602184
9460609264
9460613720
9460619884
9460625866
9460632030
9460636425
9460644420
9460648815
9460656505
9460661449
9460667736
9460673107
9460679332
9460685253
9460690990
9460697155
9460702953
9460706798
9460713085
9460719249
9460724987
9460731700
9460737499
9460742626
9460748363
9460754527
9460760692
9460767345
9460771922
9460779491
9460783885
9460791454
9460796581
9460804698
9460811717
9460816966
9460823802
9460830516
9460837230
9460843150
9460847606
9460854137
9460859752
9460865672
9460873302
9460879344
9460885020
9460891429
9460897960
9460902781
9460909923
9460916575
9460922618
9460929149
9460936717
9460941600
9460949351
9460954356
9460961009
9460967662
9460975108
9460979930
9460988597
9460993418
9461000621
9461005686
9461015025
9461018321
9461027049
9461031932
9461039439
9461044261
9461051707
9461062022
9461067820
9461075938
9461086314
9461091990
9461099192
9461106394
9461111399
9461120615
9461125681
9461137278
9461145090
9461150034
9461156321
9461162913
9461169627
9461176279
9461183542
9461190073
9461197092
9461201914
9461210093
9461214914
9461222361
9461227183
9461234629
9461241648
9461249277
9461255014
9461262156
9461267893
9461275217
9461281198
9461288462
9461295175
9461301462
9461306711
9461313974
9461322092
9461328745
9461335092
9461341745
9461347605
9461353525
9461359873
9461366220
9461372141
9461376901
9461384897
9461390512
9461397226
9461400461
9461408945
9461414499
9461421152
9461427927
9461434946
9461440195
9461447031
9461451669
9461458444
9461462106
9461469797
9461476144
9461483102
9461490854
9461496164
9461506112
9461509652
9461518258
9461525155
9461534799
9461541757
9461546762
9461554574
9461561471
9461567575
9461574411
9461580758
9461585275
9461592355
9461597421
9461604318
9461610177
9461616830
9461623056
9461629220
9461635934
9461641976
9461648446
9461652719
9461661019
9461664193
9461672799
9461678719
9461685494
9461692330
9461697762
9461705209
9461710885
9461718758
9461724862
9461736275
9461742440
9461748788
9461755257
9461762520
9461768014
9461774911
9461781441
9461788033
9461793831
9461799447
9461804513
9461810311
9461817452
9461821785
9461828743
9461833016
9461840584
9461844796
9461851204
9461855538
9461863778
9461869332
9461875801
9461880623
9461886971
9461892281
9461898934
9461905159
9461910897
9461916024
9461922371
9461929146
9461934822
9461939888
9461945748
9461952278
9461958321
9461964180
9461968636
9461975533
9461979988
9461987618
9461993233
9461999458
9462004646
9462010994
9462017036
9462023079
9462028694
9462034615
9462040108
9462045906
9462053291
9462057625
9462065010
9462069466
9462077156
9462082527
9462090156
9462095527
9462102424
9462109016
9462114815
9462120552
9462126533
9462134285
9462139229
9462146980
9462151863
9462158638
9462165657
9462171577
9462179939
9462185432
9462191291
9462198982
9462205451
9462211067
9462218086
9462225105
9462232185
9462238471
9462244270
9462251045
9462256416
9462263313
9462270515
9462277534
9462284858
9462292243
9462299079
9462304878
9462313056
9462318671
9462326484
9462333869
9462340522
9462346503
9462354133
9462361396
9462367866
9462373725
9462381354
9462389655
9462396003
9462401740
9462407599
9462414069
9462418525
9462425422
9462430060
9462440009
9462443244
9462451972
9462454963
9462463752
9462468756
9462474921
9462480170
9462487738
9462493537
9462500251
9462505561
9462512152
9462515753
9462524481
9462531806
9462538336
9462545539
9462552008
9462558966
9462564032
9462572882
9462579962
9462587103
9462593146
9462600470
9462606757
9462613104
9462618964
9462625677
9462636664
9462643317
9462649725
9462656378
9462662726
9462668585
9462674811
9462682379
9462687262
9462695074
9462699835
9462707831
9462713324
9462720160
9462726263
9462733709
9462740057
9462746832
9462754400
9462759466
9462767767
9462772833
9462781317
9462786566
9462794866
9462800054
9462808477
9462811834
9462821112
9462828070
9462835150
9462840948
9462846868
9462853033
9462859197
9462865179
9462871710
9462880071
9462885564
9462892156
9462898504
9462904363
9462911016
9462918890
9462926824
9462932256
9462939214
9462947149
9462952642
9462961004
9462967901
9462974187
9462981206
9462987310
9462992803
9462998968
9463005010
9463011236
9463018438
9463023076
9463029912
9463036077
9463042119
9463047796
9463054143
9463058477
9463065435
9463072332
9463078679
9463084233
9463089116
9463094060
9463100591
9463106145
9463112737
9463119145
9463124883
9463131169
9463136907
9463143437
9463147649
9463153691
9463160771
9463167485
9463173161
9463179997
9463185429
9463191106
9463197697
9463203374
9463209966
9463215581
9463221318
9463227116
9463234013
9463238286
9463244694
9463249089
9463256352
9463260747
9463268986
9463274113
9463280949
9463286442
9463293156
9463299321
9463304631
9463310551
9463317265
9463323430
9463329228
9463335576
9463341557
9463348088
9463352787
9463360966
9463365849
9463372197
9463377079
9463385014
9463392582
9463399174
9463406315
9463410893
9463418461
9463424626
9463431584
9463438664
9463445072
9463452213
9463458805
9463465275
9463469792
9463477909
9463481205
9463491337
9463500980
9463507633
9463514591
9463521671
9463529118
9463534428
9463540287
9463551700
9463558903
9463564030
9463571476
9463577884
9463584476
9463592167
9463599003
9463606205
9463612797
9463619144
9463625614
9463631046
9463637577
9463643741
9463650211
9463657596
9463662357
9463670169
9463674869
9463682315
9463688724
9463695072
9463702579
9463711124
9463714420
9463724552
9463731143
9463737064
9463743045
9463750369
9463756290
9463763675
9463770145
9463776614
9463781925
9463789188
9463797061
9463803531
9463810672
9463817020
9463822452
9463828921
9463835452
9463841922
9463849368
9463855960
9463863284
9463868167
9463877383
9463880740
9463890506
9463896975
9463905337
9463911380
9463918155
9463924868
9463927920
9463937075
9463943789
9463950076
9463956546
9463962405
9463969241
9463975100
9463980349
9463988101
9463995181
9464000491
9464008547
9464013674
9464021121
9464026003
9464033511
9464038394
9464047854
9464053774
9464060854
9464065554
9464072512
9464077212
9464084902
9464089358
9464097353
9464101931
9464108706
9464115298
9464121096
9464131106
9464138979
9464147829
9464155642
9464161135
9464169375
9464175356
9464182802
9464189089
9464195803
9464202212
9464210085
9464215578
9464221193
9464228029
9464233828
9464240969
9464247255
9464253237
9464259096
9464265383
9464273195
9464278383
9464284365
9464289797
9464297975
9464303347
9464309206
9464314882
9464322817
9464328005
9464335146
9464340395
9464346071
9464352297
9464356508
9464365114
9464369997
9464375856
9464382326
9464388002
9464393861
9464400880
9464405214
9464412355
9464418642
9464424257
9464431154
9464437135
9464443178
9464447450
9464453737
9464460939
9464465822
9464471925
9464479371
9464485658
9464492250
9464498231
9464504396
9464510133
9464515260
9464523011
9464529603
9464535157
9464542604
9464545778
9464555665
9464562440
9464566590
9464573915
9464580445
9464586061
9464592103
9464597169
9464606446
9464612550
9464618165
9464627442
9464634400
9464641419
9464652589
9464659913
9464667298
9464675233
9464682252
9464687989
9464695252
9464706971
9464712037
9464720155
9464727113
9464733582
9464739503
9464745972
9464753297
9464759705
9464765809
9464772278
9464779114
9464783936
9464791627
9464796692
9464805604
9464811158
9464817811
9464822876
9464831116
9464836060
9464844300
9464851258
9464857056
9464862427
9464869385
9464874390
9464883057
9464888733
9464896607
9464902893
9464910156
9464916077
9464921936
9464928650
9464936035
9464941651
9464948853
9464955139
9464962219
9464969055
9464975464
9464979736
9464986939
9464994019
9465000427
9465007080
9465013489
9465020264
9465025207
9465032288
9465038696
9465043396
9465052307
9465058410
9465064819
9465071350
9465076233
9465082641
9465089050
9465095703
9465102478
9465110107
9465114746
9465121582
9465127624
9465134582
9465141052
9465147338
9465156250
9465162719
9465169982
9465174560
9465182495
9465189331
9465195251
9465202270
9465210144
9465216674
9465223998
9465230529
9465238403
9465244872
9465252929
9465259887
9465267638
9465273803
9465281432
9465287902
9465293456
9465301147
9465309142
9465315185
9465321410
9465328796
9465333984
9465342956
9465348571
9465356933
9465362914
9465369994
9465375792
9465383056
9465389159
9465395385
9465399840
9465406798
9465412902
9465419799
9465426146
9465433043
9465437377
9465444213
9465451049
9465457213
9465463439
9465469542
9465476317
9465482482
9465487731
9465493834
9465500609
9465507201
9465513121
9465519164
9465524840
9465529234
9465536803
9465542296
9465548766
9465554503
9465560179
9465565917
9465571532
9465577452
9465583311
9465589293
9465595274
9465601500
9465608031
9465613158
9465617552
9465624632
9465628844
9465636778
9465642271
9465648619
9465654173
9465660582
9465666380
9465671995
9465676451
9465682676
9465690550
9465694700
9465701292
9465705504
9465713072
9465718687
9465724608
9465730040
9465736265
9465742613
9465748533
9465755003
9465759336
9465767637
9465771910
9465779905
9465785581
9465791319
9465798033
9465802305
9465810362
9465816282
9465823179
9465828184
9465834959
9465841612
9465848081
9465853880
9465860410
9465867490
9465872556
9465888242
9465895628
9465903806
9465911192
9465917417
9465924375
9465932127
9465939146
9465944761
9465951292
9465958005
9465964719
9465972104
9465976987
9465985898
9465990903
9465998838
9466003904
9466010556
9466017942
9466024961
9466032285
9466037839
9466042661
9466051145
9466056821
9466062375
9466067319
9466076352
9466082456
9466089780
9466095334
9466102536
9466108579
9466116147
9466123410
9466129636
9466136167
9466142636
9466148068
9466154416
9466161008
9466167477
9466174069
9466180478
9466187375
9466193784
9466197873
9466205014
9466212460
9466217343
9466225949
9466230771
9466238034
9466242856
9466251645
9466256772
9466264767
9466270993
9466278256
9466284848
9466290463
9466296811
9466302304
9466310055
9466315670
9466321103
9466328305
9466335385
9466341000
9466348080
9466353634
9466356869
9466366818
9466373776
9466379391
9466386166
9466393307
9466398556
9466405758
9466411373
9466418698
9466426571
9466431332
9466440060
9466445675
9466453365
9466456783
9466466122
9466473385
9466479672
9466486691
9466494686
9466498836
9466509518
9466517452
9466524227
9466532711
9466542538
9466550838
9466556270
9466563656
9466570919
9466579036
9466584224
9466590816
9466595211
9466604244
9466610775
9466616268
9466622310
9466629268
9466634090
9466641109
9466648189
9466654537
9466659053
9466665950
9466672298
9466678462
9466684444
9466690608
9466697261
9466703548
9466708980
9466715206
9466720333
9466728816
9466734676
9466740901
9466747676
9466752437
9466762569
9466769649
9466775874
9466782466
9466787898
9466794490
9466799068
9466805476
9466809932
9466818294
9466824824
9466829951
9466836055
9466842830
9466848933
9466854732
9466860164
9466865901
9466872493
9466878169
9466884456
9466888850
9466894832
9466900142
9466906489
9466911555
9466919307
9466925349
9466930110
9466934626
9466940486
9466945613
9466951594
9466960078
9466964595
9466970393
9466975764
9466981929
9466986079
9466992915
9466995600
9467004389
9467010615
9467016841
9467022822
9467028437
9467032465
9467038630
9467044978
9467050715
9467057673
9467064021
9467068964
9467075678
9467081110
9467085627
9467093623
9467101496
9467107966
9467115778
9467122492
9467130671
9467140925
9467149775
9467157953
9467164667
9467169306
9467177241
9467183100
9467189753
9467195490
9467202021
9467208307
9467213923
9467220820
9467225397
9467233820
9467241144
9467246454
9467251886
9467258417
9467263483
9467270136
9467277643
9467284662
9467291742
9467296625
9467303339
9467310785
9467317865
9467324762
9467330011
9467337763
9467343378
9467348627
9467354181
9467360590
9467368463
9467374628
9467381952
9467389703
9467396600
9467403986
9467410028
9467418207
9467424676
9467430902
9467439020
9467444879
9467451044
9467458490
9467463556
9467472894
9467479730
9467485772
9467494928
9467499994
9467507318
9467514825
9467519586
9467527032
9467532708
9467539483
9467548516
9467554437
9467562005
9467567681
9467574456
9467581231
9467589044
9467595758
9467600884
9467609490
9467615411
9467620721
9467629388
9467636712
9467644219
9467651605
9467656609
9467664910
9467672417
9467679192
9467686639
9467698479
9467704583
9467713494
9467721123
9467728753
9467735345
9467742730
9467749200
9467755364
9467763115
9467768303
9467774712
9467779473
9467786675
9467791375
9467799614
9467804741
9467810845
9467817681
9467823235
9467827874
9467836541
9467841912
9467848809
9467854424
9467861382
9467867058
9467872490
9467878655
9467885735
9467891777
9467898857
9467904778
9467911736
9467915947
9467922905
9467928948
9467935845
9467940056
9467948479
9467952629
9467959526
9467964775
9467971672
9467977531
9467984062
9467989738
9467995476
9468001823
9468007622
9468012810
9468018669
9468024650
9468030510
9468037712
9468041984
9468048088
9468052360
9468060173
9468064506
9468071403
9468076469
9468084160
9468088371
9468095939
9468101066
9468106620
9468112053
9468118461
9468125114
9468130424
9468136528
9468142997
9468148429
9468154106
9468158439
9468166923
9468172355
9468178398
9468184501
9468190055
9468196098
9468200859
9468208854
9468214103
9468222038
9468228019
9468234367
9468240165
9468246696
9468255058
9468262504
9468267936
9468273734
9468281181
9468287406
9468295219
9468304252
9468310294
9468317741
9468324210
9468330863
9468336356
9468343070
9468349662
9468356986
9468363761
9468368583
9468376456
9468381278
9468389396
9468395438
9468402762
9468409232
9468415213
9468420890
9468428092
9468433951
9468439627
9468447501
9468453177
9468459952
9468465750
9468473563
9468481925
9468489188
9468495963
9468501944
9468508048
9468515250
9468521842
9468529715
9468534659
9468541434
9468548026
9468555167
9468562735
9468568350
9468575369
9468581107
9468588553
9468594351
9468601309
9468608633
9468614676
9468621878
9468628775
9468635245
9468641714
9468648184
9468652518
9468661246
9468667410
9468673819
9468680044
9468684866
9468691519
9468700430
9468707266
9468713736
9468720205
9468726614
9468733389
9468739981
9468746450
9468753652
9468759329
9468766287
9468771963
9468778921
9468784658
9468792288
9468798086
9468804189
9468811453
9468819265
9468824209
9468830068
9468837331
9468843191
9468850454
9468857046
9468863271
9468871145
9468876028
9468883962
9468889883
9468897695
9468905630
9468916067
9468922903
9468931814
9468938161
9468943593
9468952566
9468959096
9468967397
9468974904
9468981984
9468987600
9468994863
9469000722
9469008046
9469015126
9469020498
9469027517
9469033132
9469039968
9469045949
9469052236
9469059133
9469065297
9469071706
9469078054
9469083486
9469089833
9469096730
9469103078
9469108815
9469114980
9469121694
9469128041
9469133046
9469139394
9469145741
9469152089
9469158681
9469164845
9469170827
9469177174
9469183461
9469189870
9469195363
9469201649
9469210011
9469214711
9469222706
9469227467
9469235524
9469241017
9469246327
9469253468
9469259877
9469263783
9469270131
9469276967
9469282643
9469288380
9469294117
9469299733
9469305531
9469311024
9469316761
9469324147
9469328663
9469335743
9469340321
9469347401
9469352528
9469359059
9469366017
9469371632
9469377430
9469383045
9469390553
9469393727
9469401600
9469406971
9469413075
9469418812
9469424244
9469430225
9469439381
9469444202
9469449390
9469456898
9469459827
9469468189
9469474049
9469484425
9469491566
9469496998
9469504627
9469509876
9469517017
9469523670
9469534107
9469539600
9469545399
9469553333
9469559437
9469565540
9469569874
9469577930
9469584278
9469590625
9469596851
9469602893
9469608326
9469614429
9469622547
9469628101
9469634265
9469639209
9469647693
9469652637
9469659290
9469664112
9469673694
9469679126
9469686756
9469692554
9469698108
9469705493
9469711170
9469716785
9469724536
9469730457
9469737720
9469744251
9469749805
9469756274
9469763538
9469771045
9469777637
9469784290
9469790759
9469796924
9469803393
9469809802
9469816272
9469822436
9469828601
9469835437
9469846057
9469852221
9469859790
9469865649
9469873156
9469880298
9469884692
9469892260
9469898669
9469906054
9469913134
9469919726
9469927356
9469933703
9469940173
9469946765
9469953173
9469959643
9469964709
9469973132
9469979052
9469986071
9469992724
9469997546
9470004565
9470011767
9470017321
9470022814
9470031603
9470038134
9470045031
9470050036
9470056323
9470062792
9470069079
9470076769
9470081591
9470089892
9470094958
9470101672
9470107043
9470115221
9470124438
9470132982
9470139818
9470147204
9470154345
9470161608
9470167406
9470174303
9470182604
9470187487
9470194750
9470199633
9470208239
9470213366
9470220446
9470225695
9470234056
9470238878
9470246141
9470253527
9470259264
9470264269
9470271654
9470276598
9470285570
9470291551
9470297167
9470301988
9470310350
9470316454
9470321947
9470330492
9470335741
9470341417
9470348497
9470354967
9470360704
9470368455
9470373949
9470380052
9470387071
9470393602
9470400255
9470406969
9470413316
9470418931
9470425096
9470431871
9470437974
9470443834
9470449998
9470455797
9470461961
9470468980
9470473619
9470481248
9470486070
9470493821
9470498704
9470505845
9470510057
9470518174
9470523851
9470531358
9470535936
9470542344
9470546800
9470554856
9470559922
9470565599
9470572007
9470577683
9470583604
9470589341
9470595994
9470600450
9470608079
9470615037
9470620103
9470625840
9470632127
9470638657
9470645005
9470650620
9470656358
9470663682
9470668076
9470674546
9470679490
9470687669
9470692979
9470699265
9470704514
9470710740
9470717820
9470725205
9470735093
9470740586
9470747727
9470755234
9470762925
9470769394
9470775803
9470782639
9470788559
9470794663
9470800522
9470807846
9470812180
9470820176
9470824814
9470832627
9470837876
9470844467
9470852219
9470859360
9470865280
9470871201
9470876877
9470882736
9470889084
9470895004
9470903183
9470908066
9470915024
9470921494
9470928452
9470933273
9470940659
9470945602
9470954147
9470958969
9470966415
9470971237
9470979050
9470983871
9470990463
9470997726
9471006210
9471012436
9471018234
9471023849
9471031112
9471038009
9471045395
9471050644
9471057785
9471064438
9471071701
9471076217
9471083481
9471090133
9471096786
9471101547
9471108627
9471115707
9471121872
9471126693
9471133773
9471140304
9471146774
9471153915
9471158981
9471167526
9471173812
9471179305
9471185104
9471191696
9471198776
9471205245
9471212814
9471217635
9471224593
9471232040
9471239486
9471247176
9471253951
9471261459
9471266097
9471272933
9471279342
9471285567
9471292464
9471304793
9471308700
9471317306
9471324935
9471330794
9471336776
9471344588
9471352584
9471360030
9471368209
9471377303
9471383529
9471389205
9471397445
9471403609
9471413131
9471419539
9471426802
9471434371
9471441878
9471448104
9471455794
9471463851
9471470870
9471477400
9471484542
9471491499
9471496382
9471502974
9471507857
9471517195
9471522017
9471529524
9471534346
9471542220
9471546980
9471555342
9471560835
9471568037
9471574324
9471580183
9471587874
9471594160
9471600752
9471606917
9471612898
9471619124
9471625593
9471631941
9471639082
9471643660
9471650374
9471656538
9471663252
9471667830
9471675398
9471680464
9471687971
9471692671
9471699507
9471707502
9471712934
9471717634
9471725874
9471731062
9471738264
9471744367
9471751325
9471756941
9471762251
9471767378
9471774885
9471780500
9471787397
9471793440
9471800092
9471806623
9471812177
9471817609
9471823408
9471832563
9471838117
9471844526
9471847883
9471856977
9471863142
9471869001
9471873579
9471879987
9471884809
9471892683
9471898664
9471904401
9471910627
9471915021
9471921552
9471927167
9471933576
9471938276
9471947065
9471953718
9471959882
9471964277
9471970868
9471977582
9471983991
9471992902
9471999433
9472004804
9472012311
9472018415
9472024030
9472030194
9472036054
9472042096
9472048627
9472054486
9472060102
9472066083
9472071820
9472077985
9472084638
9472090619
9472097028
9472101422
9472109235
9472113690
9472121014
9472128461
9472133710
9472139264
9472145917
9472150861
9472157452
9472162823
9472169965
9472178387
9472183148
9472189801
9472196576
9472202984
9472209454
9472216595
9472223004
9472229718
9472236188
9472241559
9472248028
9472254925
9472261395
9472266888
9472273297
9472279950
9472286297
9472292462
9472298932
9472305096
9472311688
9472317852
9472324444
9472332012
9472338299
9472345440
9472350872
9472358319
9472363201
9472370403
9472376934
9472385235
9472390057
9472398358
9472404217
9472409954
9472414837
9472424053
9472430950
9472438213
