9276852777
9276858514
9276864190
9276868524
9276874505
9276879327
9276884576
9276889886
9276894891
9276900872
9276907220
9276912652
9276918511
9276924065
9276928948
9276935296
9276941094
9276946221
9276952325
9276958489
9276966546
9276972100
9276977593
9276985406
9276993218
9276999688
9277007867
9277013604
9277019829
9277026177
9277034173
9277041375
9277048882
9277056023
9277062554
9277069512
9277078972
9277086358
9277092461
9277104668
9277113030
9277120293
9277127739
9277134209
9277141228
9277147148
9277153374
9277161492
9277166924
9277175530
9277182366
9277189690
9277198113
9277207207
9277216423
9277223625
9277232109
9277243156
9277250725
9277263054
9277271721
9277278618
9277284843
9277291496
9277297539
9277306022
9277312675
9277320732
9277328239
9277337089
9277343986
9277352165
9277361198
9277367241
9277376701
9277384697
9277392204
9277400322
9277407524
9277413444
9277425224
9277431877
9277441154
9277447868
9277456108
9277463188
9277472038
9277480461
9277487235
9277495902
9277503471
9277510734
9277518058
9277524223
9277532890
9277541984
9277548515
9277557426
9277563590
9277573722
9277581351
9277590812
9277597831
9277604178
9277612601
9277619132
9277625785
9277633475
9277641837
9277649527
9277655204
9277664298
9277670096
9277676627
9277685294
9277694388
9277701346
9277708670
9277718680
9277725882
9277734854
9277743704
9277753043
9277759940
9277768973
9277776602
9277783560
9277790762
9277798270
9277805655
9277813956
9277822379
9277829520
9277836356
9277844534
9277853445
9277862112
9277870291
9277879507
9277886038
9277893179
9277901358
9277913992
9277924185
9277933828
9277942068
9277948355
9277957449
9277964285
9277972708
9277982168
9277988699
9277995840
9278004324
9278012320
9278020193
9278027212
9278034597
9278042471
9278050649
9278058157
9278063772
9278072012
9278080190
9278087270
9278095571
9278102773
9278109853
9278117483
9278125784
9278134023
9278140676
9278150686
9278158132
9278164968
9278171804
9278179494
9278186513
9278194692
9278202444
9278210378
9278217580
9278224782
9278231618
9278238820
9278245839
9278254506
9278261953
9278269765
9278276662
9278284414
9278291188
9278296560
9278305898
9278311818
9278320119
9278328054
9278335134
9278343312
9278350270
9278356557
9278364125
9278372060
9278380727
9278388051
9278396169
9278403981
9278412160
9278420094
9278426747
9278435048
9278441090
9278449330
9278458729
9278466969
9278475392
9278483143
9278494191
9278503041
9278509572
9278515736
9278525258
9278531971
9278539235
9278547291
9278554860
9278562733
9278568104
9278578053
9278584462
9278592091
9278601735
9278607716
9278616505
9278622914
9278629811
9278638111
9278646107
9278652088
9278664356
9278670155
9278678028
9278684742
9278692371
9278699696
9278707935
9278715992
9278723866
9278732227
9278737537
9278745472
9278753712
9278760670
9278769825
9278777576
9278784229
9278791920
9278798755
9278806690
9278815235
9278824817
9278831470
9278840259
9278847583
9278853992
9278862781
9278870960
9278878162
9278885486
9278893604
9278902454
9278909351
9278918872
9278927295
9278935108
9278943469
9278947498
9278958362
9278965320
9278974170
9278982105
9278988941
9278995960
9279002795
9279011768
9279018970
9279025073
9279034045
9279041492
9279047473
9279054858
9279062244
9279068103
9279076037
9279082568
9279091846
9279098865
9279104846
9279111499
9279118762
9279127246
9279133593
9279140063
9279146533
9279152575
9279160083
9279167224
9279173693
9279180590
9279185962
9279193896
9279201098
9279207263
9279214709
9279222949
9279228930
9279236926
9279244128
9279253100
9279260851
9279266772
9279273242
9279279284
9279283923
9279293200
9279299487
9279309435
9279320788
9279326525
9279336718
9279343981
9279348742
9279356310
9279360888
9279368334
9279375109
9279379992
9279386828
9279394274
9279400439
9279407030
9279414721
9279421374
9279428148
9279434862
9279440661
9279446520
9279453478
9279459459
9279466539
9279472826
9279480028
9279485888
9279493517
9279500841
9279506945
9279512377
9279519518
9279525133
9279531908
9279538866
9279545275
9279551622
9279557421
9279564073
9279569505
9279577318
9279582994
9279588915
9279596361
9279602403
9279608629
9279613145
9279621263
9279629381
9279635301
9279641771
9279648180
9279655809
9279662279
9279670518
9279680711
9279687547
9279694322
9279700670
9279707506
9279714708
9279721544
9279728502
9279736802
9279743699
9279750718
9279757310
9279765489
9279773912
9279784410
9279793748
9279802720
9279809312
9279818528
9279824449
9279831956
9279839707
9279845078
9279854295
9279861680
9279868394
9279875901
9279884080
9279888719
9279897813
9279905259
9279912034
9279922593
9279928391
9279934983
9279942918
9279949509
9279957566
9279964524
9279973435
9279980027
9279992173
9279999558
9280006699
9280013962
9280020188
9280026658
9280035630
9280042222
9280050278
9280056687
9280064316
9280070664
9280077256
9280082260
9280090500
9280095688
9280101670
9280108200
9280114670
9280120774
9280129624
9280134934
9280142563
9280150009
9280155747
9280161789
9280168137
9280174118
9280179855
9280185715
9280193649
9280200485
9280205124
9280212631
9280217453
9280223373
9280229599
9280237045
9280241745
9280247787
9280254867
9280259262
9280266708
9280272568
9280278610
9280284714
9280291183
9280297653
9280301986
9280309006
9280315048
9280321274
9280327560
9280336654
9280345932
9280355941
9280359970
9280366256
9280371627
9280377609
9280383346
9280389328
9280395431
9280401474
9280406845
9280412948
9280418380
9280424423
9280430038
9280435714
9280449874
9280456527
9280464401
9280471664
9280477157
9280483871
9280491500
9280497054
9280503036
9280508651
9280514938
9280521041
9280525985
9280532577
9280539291
9280544662
9280552108
9280558028
9280564254
9280569869
9280576583
9280583907
9280590743
9280598006
9280603927
9280610885
9280618758
9280623763
9280631270
9280637313
9280644576
9280649032
9280656783
9280661788
9280669173
9280674910
9280683211
9280689193
9280694686
9280702498
9280707747
9280713851
9280720320
9280726607
9280733382
9280739424
9280747054
9280751509
9280758345
9280764449
9280772017
9280778609
9280785079
9280792220
9280797163
9280803633
9280810042
9280816328
9280822920
9280829634
9280836653
9280842818
9280847761
9280856123
9280860945
9280868758
9280874434
9280882002
9280887434
9280893904
9280901045
9280907271
9280912825
9280920027
9280925886
9280934126
9280940229
9280946211
9280951521
9280959578
9280965925
9280971601
9280977400
9280985029
9280991255
9280998213
9281004316
9281011091
9281017317
9281024153
9281031843
9281036665
9281044782
9281049604
9281056928
9281064741
9281071943
9281078352
9281084699
9281091840
9281099470
9281105512
9281111921
9281118024
9281124494
9281130537
9281136945
9281142988
9281150251
9281156660
9281163068
9281169416
9281177595
9281184369
9281191144
9281198224
9281204816
9281209516
9281217023
9281224531
9281231916
9281242048
9281248334
9281255475
9281261579
9281267682
9281273969
9281280072
9281286420
9281293683
9281299909
9281307111
9281313642
9281320233
9281324872
9281332257
9281338605
9281345197
9281351361
9281357526
9281364545
9281369245
9281375043
9281381574
9281388715
9281393353
9281399152
9281405988
9281413007
9281417706
9281423871
9281430157
9281437665
9281442425
9281449200
9281456036
9281461529
9281468060
9281473126
9281479840
9281486249
9281491315
9281498211
9281504620
9281512127
9281517193
9281523297
9281531903
9281540204
9281548199
9281556012
9281564984
9281570965
9281576702
9281582867
9281588787
9281594830
9281599652
9281606304
9281611309
9281616497
9281623272
9281629498
9281635906
9281640911
9281646832
9281652508
9281657025
9281663860
9281671368
9281677776
9281685040
9281689678
9281696758
9281702801
9281708904
9281714275
9281720013
9281725689
9281733562
9281740032
9281746563
9281752300
9281758160
9281765728
9281772442
9281778179
9281783794
9281789837
9281795025
9281801494
9281807049
9281813152
9281820598
9281825786
9281832378
9281839275
9281845256
9281852092
9281858013
9281862957
9281869732
9281874614
9281882000
9281887126
9281894268
9281900127
9281907451
9281911602
9281917949
9281923625
9281930217
9281935954
9281941997
9281947917
9281954143
9281962444
9281967632
9281974956
9281980693
9281988261
9281994548
9282000957
9282007121
9282014140
9282020915
9282027324
9282032024
9282039470
9282046733
9282053081
9282059672
9282064494
9282071330
9282077739
9282084697
9282089641
9282096660
9282103007
9282109599
9282116435
9282122050
9282129130
9282134929
9282141887
9282147441
9282154277
9282160563
9282165812
9282171855
9282178874
9282185038
9282192363
9282198771
9282204264
9282212321
9282217814
9282225138
9282230509
9282237162
9282245219
9282251566
9282257731
9282263285
9282269694
9282276042
9282283305
9282290324
9282298624
9282305643
9282310587
9282318461
9282322916
9282330363
9282336466
9282343668
9282349833
9282356180
9282362223
9282368754
9282375040
9282381632
9282386332
9282393656
9282401285
9282407938
9282414713
9282419718
9282427530
9282432657
9282439676
9282446940
9282456156
9282464334
9282469522
9282475626
9282482645
9282488932
9282496256
9282502542
9282508463
9282514749
9282521646
9282527811
9282534952
9282539591
9282549051
9282556253
9282561197
9282567667
9282574136
9282580850
9282587381
9282594034
9282598978
9282606790
9282613687
9282619669
9282625162
9282632303
9282637674
9282644815
9282650064
9282657327
9282662393
9282668680
9282673929
9282681192
9282686441
9282692788
9282698099
9282705972
9282711221
9282717935
9282723489
9282730325
9282735635
9282742654
9282750650
9282757180
9282763040
9282768228
9282774148
9282781106
9282787088
9282792703
9282798867
9282806314
9282810891
9282818582
9282825662
9282830422
9282837258
9282843484
9282848367
9282854409
9282859414
9282865579
9282871316
9282876016
9282883584
9282891274
9282897134
9282903664
9282911111
9282915993
9282923623
9282929482
9282935158
9282940896
9282947549
9282953713
9282958535
9282964760
9282971169
9282976235
9282983986
9282989235
9282996865
9283001442
9283008828
9283013161
9283020302
9283027443
9283032265
9283040383
9283046547
9283056130
9283060646
9283066933
9283073342
9283078408
9283085060
9283089882
9283096596
9283103737
9283109719
9283115334
9283121926
9283126259
9283133217
9283139198
9283145058
9283151100
9283157875
9283165260
9283170387
9283177528
9283183022
9283189247
9283194984
9283201942
9283208229
9283213844
9283221474
9283226417
9283233314
9283240944
9283245827
9283253517
9283259498
9283265541
9283272621
9283278663
9283284157
9283290138
9283296608
9283303077
9283310646
9283316871
9283323951
9283328468
9283335853
9283343116
9283348549
9283355690
9283361122
9283368751
9283375038
9283382057
9283386879
9283396095
9283405433
9283410316
9283417762
9283424720
9283430457
9283435829
9283442481
9283450111
9283456092
9283462135
9283468849
9283473548
9283481117
9283487769
9283495765
9283502906
9283509620
9283517738
9283522803
9283530982
9283535926
9283544471
9283551673
9283557960
9283563331
9283571692
9283578040
9283584571
9283590919
9283596534
9283602515
9283612098
9283618323
9283624671
9283630957
9283637061
9283643714
9283649939
9283660804
9283666785
9283674109
9283679541
9283686988
9283692481
9283698706
9283704199
9283712012
9283717383
9283723914
9283729346
9283736304
9283744055
9283749915
9283757727
9283764746
9283771094
9283776587
9283782874
9283789526
9283795691
9283801794
9283809546
9283815405
9283821631
9283827795
9283834021
9283841162
9283847327
9283853857
9283860205
9283866858
9283872961
9283879187
9283883520
9283890906
9283896643
9283902380
9283908178
9283914709
9283920569
9283927160
9283933630
9283939856
9283945837
9283952185
9283956884
9283963903
9283971106
9283975866
9283980261
9283987890
9283993872
9284001989
9284007604
9284012976
9284020971
9284026708
9284031713
9284038793
9284044531
9284049169
9284056249
9284062780
9284069311
9284075903
9284080785
9284086523
9284092138
9284099767
9284110570
9284115758
9284122472
9284126745
9284133886
9284142065
9284147008
9284152746
9284157628
9284165075
9284169958
9284176183
9284180944
9284187719
9284193212
9284199865
9284205785
9284211095
9284217992
9284223729
9284229711
9284235570
9284241979
9284248693
9284254857
9284260167
9284266576
9284274205
9284280370
9284285619
9284291661
9284295568
9284301854
9284307225
9284313695
9284320104
9284326146
9284332921
9284337316
9284343236
9284349095
9284355138
9284361607
9284368138
9284373204
9284380223
9284385289
9284392369
9284397435
9284404210
9284409276
9284415929
9284420811
9284428624
9284434361
9284439976
9284445775
9284452550
9284458104
9284464818
9284471287
9284477757
9284483494
9284490452
9284496800
9284502415
9284509800
9284516819
9284522618
9284529820
9284536229
9284541172
9284549412
9284554966
9284563328
9284569187
9284574681
9284580113
9284588230
9284594090
9284601292
9284608128
9284615025
9284620579
9284627415
9284634129
9284639195
9284646153
9284651707
9284659153
9284665073
9284672031
9284678196
9284684544
9284691196
9284698765
9284706150
9284712437
9284717014
9284725986
9284730442
9284738499
9284745029
9284750095
9284757847
9284764133
9284771396
9284776157
9284783542
9284790439
9284796482
9284802097
9284811069
9284818088
9284823642
9284830539
9284836460
9284841159
9284848850
9284856784
9284864536
9284870822
9284879001
9284885837
9284892368
9284899265
9284906284
9284912448
9284917575
9284924716
9284930087
9284937717
9284943088
9284950656
9284956577
9284962985
9284968356
9284976291
9284981601
9284987949
9284993320
9285001132
9285008762
9285015475
9285021518
9285026767
9285032809
9285039096
9285045138
9285052646
9285058993
9285064914
9285071017
9285077365
9285083590
9285090915
9285095553
9285103000
9285109225
9285114901
9285120822
9285127536
9285133395
9285140536
9285144870
9285151767
9285159579
9285164279
9285168551
9285177035
9285183627
9285188571
9285194796
9285203036
9285210482
9285216281
9285220797
9285228365
9285233309
9285240450
9285245821
9285252718
9285257723
9285264925
9285270663
9285276034
9285283297
9285288180
9285296847
9285302462
9285309847
9285315585
9285321322
9285327608
9285333529
9285340670
9285346651
9285363741
9285369906
9285375155
9285381807
9285389010
9285394747
9285398897
9285405550
9285411898
9285417757
9285424105
9285428988
9285436617
9285441256
9285448580
9285453951
9285461397
9285467440
9285473848
9285479463
9285485140
9285490511
9285496553
9285501924
9285508760
9285512667
9285520784
9285526582
9285532686
9285538240
9285542879
9285549349
9285554170
9285561556
9285566988
9285573824
9285578340
9285586336
9285590364
9285597261
9285602876
9285609346
9285617586
9285624544
9285630159
9285637178
9285642366
9285647493
9285654512
9285660310
9285666231
9285671907
9285678071
9285683748
9285691499
9285697297
9285703279
9285709626
9285717805
9285724397
9285729829
9285737886
9285743928
9285749055
9285756623
9285763093
9285769075
9285775849
9285781892
9285788301
9285794343
9285800386
9285807527
9285814546
9285821382
9285826142
9285833833
9285840669
9285846528
9285854035
9285861543
9285867402
9285872651
9285878571
9285886445
9285893281
9285900361
9285905610
9285914216
9285918854
9285926789
9285934357
9285939240
9285946564
9285951630
9285959870
9285966706
9285972748
9285977631
9285985322
9285990082
9285997162
9286004426
9286011811
9286017243
9286024811
9286030915
9286037384
9286043732
9286049836
9286058991
9286066925
9286074555
9286081635
9286087555
9286092987
9286100800
9286106293
9286113800
9286119110
9286126434
9286132355
9286138764
9286145050
9286151886
9286158051
9286164825
9286170929
9286176971
9286183075
9286189362
9286195465
9286201935
9286207977
9286214874
9286221649
9286228058
9286232574
9286239715
9286246124
9286252472
9286260223
9286265167
9286272064
9286279083
9286285064
9286292022
9286297943
9286305572
9286311432
9286318267
9286324188
9286329559
9286336944
9286342498
9286348541
9286355255
9286362335
9286368194
9286374481
9286380096
9286386260
9286392120
9286398895
9286405242
9286411712
9286417144
9286422271
9286429595
9286434600
9286441680
9286447601
9286454131
9286459686
9286465911
9286472686
9286477752
9286484161
9286493255
9286500701
9286507354
9286512481
9286519195
9286525237
9286531158
9286538604
9286546050
9286552276
9286558013
9286562774
9286568938
9286573760
9286580230
9286585051
9286591948
9286596648
9286603057
9286610686
9286615996
9286623015
9286629302
9286635405
9286641509
9286645720
9286654570
9286660674
9286666960
9286672393
9286678618
9286684294
9286691008
9286696074
9286700896
9286707854
9286713164
9286719267
9286725127
9286730620
9286736174
9286742705
9286748259
9286754485
9286760588
9286766386
9286770415
9286777495
9286781462
9286789275
9286794707
9286801298
9286806975
9286813689
9286820036
9286824919
9286832060
9286837614
9286844023
9286849699
9286855498
9286863554
9286869902
9286875761
9286882170
9286887907
9286892790
9286899748
9286905485
9286912138
9286919218
9286924223
9286929838
9286936430
9286942228
9286949369
9286957548
9286962309
9286970060
9286974638
9286981047
9286987821
9286993742
9287000639
9287007108
9287012541
9287019560
9287025541
9287032499
9287036955
9287044035
9287052274
9287059232
9287064909
9287070219
9287077726
9287084379
9287090971
9287100675
9287107511
9287114713
9287120389
9287128690
9287133695
9287140165
9287147184
9287155301
9287160306
9287167570
9287174589
9287179777
9287186918
9287193692
9287198819
9287206327
9287213346
9287220975
9287226285
9287233365
9287238797
9287246671
9287256986
9287264188
9287270841
9287276639
9287284452
9287289762
9287297330
9287302518
9287311185
9287317777
9287324002
9287330350
9287336697
9287342801
9287349759
9287357083
9287361905
9287370084
9287374905
9287381436
9287388333
9287395108
9287400540
9287407742
9287414639
9287420926
9287426297
9287432583
9287439603
9287445462
9287452847
9287458767
9287466275
9287473416
9287479641
9287486233
9287492520
9287500149
9287507657
9287512661
9287519131
9287527676
9287535000
9287540493
9287547268
9287555142
9287560147
9287568936
9287574002
9287581143
9287587857
9287595791
9287602200
9287609219
9287615688
9287621914
9287626431
9287633144
9287639248
9287645596
9287651699
9287658596
9287665615
9287670437
9287676785
9287682705
9287688808
9287695461
9287701443
9287707302
9287714504
9287722072
9287729336
9287733913
9287741176
9287748684
9287753872
9287762050
9287766872
9287772854
9287779384
9287786037
9287792141
9287798000
9287804165
9287811672
9287816494
9287824184
9287829982
9287834987
9287842372
9287847133
9287854213
9287860073
9287865627
9287872280
9287878322
9287884548
9287890163
9287896205
9287903224
9287907314
9287915248
9287920192
9287925807
9287932887
9287939052
9287944728
9287951015
9287956508
9287961879
9287967250
9287972987
9287978908
9287986537
9287991115
9287997035
9288004359
9288009975
9288015956
9288021327
9288027797
9288033778
9288040370
9288044337
9288051234
9288057643
9288064479
9288070399
9288076869
9288083339
9288088344
9288095118
9288100184
9288107203
9288112941
9288118495
9288125697
9288131984
9288137721
9288142848
9288148463
9288154628
9288160182
9288166835
9288174281
9288180689
9288186549
9288191676
9288199610
9288204981
9288212245
9288217921
9288224452
9288231287
9288238551
9288244044
9288250636
9288256251
9288263270
9288271815
9288277125
9288284876
9288291163
9288296961
9288302515
9288309290
9288316492
9288324366
9288331202
9288338160
9288343897
9288352564
9288357569
9288364100
9288371485
9288377161
9288384058
9288391443
9288397059
9288403345
9288410547
9288417078
9288425379
9288432398
9288438135
9288445215
9288451868
9288458399
9288465235
9288473535
9288480066
9288489527
9288495996
9288502283
9288509302
9288515589
9288522302
9288528650
9288536035
9288542322
9288548914
9288555322
9288561975
9288566614
9288574365
9288581140
9288587549
9288594080
9288598901
9288606775
9288611597
9288618616
9288625146
9288632165
9288639123
9288644861
9288651880
9288657983
9288662866
9288670251
9288677087
9288685144
9288690942
9288696740
9288704553
9288710656
9288717126
9288724145
9288730859
9288738488
9288743188
9288751001
9288757714
9288764306
9288769311
9288775659
9288782189
9288789147
9288797631
9288803430
9288810876
9288818017
9288823022
9288831628
9288839501
9288847314
9288853967
9288859155
9288866235
9288873132
9288880029
9288886742
9288892846
9288897485
9288904626
9288911400
9288917443
9288922082
9288928979
9288936791
9288943200
9288949608
9288955041
9288960900
9288969567
9288975853
9288981408
9288987267
9288994225
9289000267
9289007592
9289012108
9289018822
9289024865
9289032433
9289039147
9289045494
9289052574
9289058495
9289065331
9289070946
9289077904
9289085045
9289091210
9289096764
9289102501
9289109581
9289116051
9289120934
9289128075
9289134850
9289140953
9289146935
9289151817
9289158531
9289163902
9289171837
9289177696
9289183433
9289189720
9289198448
9289205833
9289214256
9289218223
9289225975
9289231407
9289237022
9289242393
9289248070
9289254112
9289260399
9289266380
9289273033
9289279503
9289284935
9289292808
9289301353
9289306297
9289312523
9289319175
9289323570
9289330162
9289334373
9289340477
9289346336
9289352867
9289360252
9289365501
9289370872
9289377159
9289382713
9289388267
9289394981
9289401206
9289407127
9289414146
9289420554
9289426902
9289433555
9289439903
9289445457
9289452354
9289458091
9289462424
9289470542
9289475486
9289481834
9289490134
9289496360
9289502341
9289508994
9289514854
9289521506
9289526511
9289534873
9289545310
9289551658
9289556540
9289562400
9289570334
9289575889
9289583762
9289589682
9289596824
9289602683
9289610007
9289615378
9289623069
9289629660
9289637900
9289646140
9289651206
9289658408
9289665854
9289671530
9289678794
9289685141
9289693503
9289728537
9289735556
9289742209
9289749045
9289755820
9289762778
9289770529
9289775656
9289782004
9289789694
9289796591
9289803061
9289809347
9289815573
9289823019
9289827658
9289834677
9289840780
9289847494
9289853598
9289860556
9289865011
9289872641
9289878805
9289885580
9289894064
9289900534
9289908651
9289919210
9289926901
9289931784
9289939291
9289945639
9289953085
9289960653
9289967489
9289974630
9289981466
9289989279
9289998251
9290006796
9290012838
9290020956
9290026815
9290033956
9290040548
9290045919
9290052938
9290058675
9290065145
9290070089
9290076315
9290083334
9290088277
9290096212
9290102010
9290107748
9290114889
9290119100
9290125509
9290130941
9290138326
9290145467
9290150106
9290158590
9290166341
9290173604
9290178914
9290186239
9290193746
9290200582
9290206502
9290213277
9290219258
9290225545
9290231588
9290238362
9290242940
9290250325
9290256795
9290263082
9290267659
9290275899
9290280416
9290288411
9290292745
9290300801
9290308248
9290313191
9290321309
9290326070
9290332600
9290337300
9290348225
9290354756
9290360310
9290365071
9290372212
9290379414
9290386983
9290392659
9290398091
9290404378
9290411641
9290417744
9290424153
9290429219
9290435994
9290441121
9290447651
9290454670
9290459004
9290466389
9290470967
9290502217
9290508137
9290513996
9290519429
9290525837
9290531697
9290537678
9290543110
9290549885
9290555989
9290562397
9290568684
9290574055
9290580525
9290585468
9290590412
9290598347
9290604145
9290610737
9290614887
9290621601
9290628864
9290633625
9290640217
9290646870
9290652973
9290658283
9290664753
9290672260
9290676533
9290684467
9290691242
9290697895
9290703876
9290709431
9290715229
9290719684
9290728168
9290736591
9290742573
9290750202
9290756916
9290763874
9290770343
9290774921
9290783222
9290790424
9290795124
9290801227
9290808612
9290815570
9290820392
9290827228
9290834064
9290842121
9290849689
9290855915
9290861286
9290868915
9290874347
9290881244
9290887164
9290895160
9290900592
9290911578
9290917377
9290924091
9290931171
9290938861
9290946368
9290951129
9290960284
9290965839
9290972858
9290978839
9290985553
9290992328
9290998920
9291006732
9291015521
9291022418
9291027850
9291037127
9291042743
9291048297
9291056964
9291060992
9291068622
9291074969
9291082293
9291088641
9291095599
9291101886
9291108905
9291115069
9291122515
9291128436
9291135211
9291141864
9291149493
9291157855
9291162432
9291169940
9291176715
9291183734
9291190203
9291196002
9291204485
9291210284
9291216204
9291224078
9291231951
9291237688
9291244708
9291250384
9291259234
9291264788
9291271014
9291278399
9291284685
9291291033
9291298479
9291308855
9291315508
9291324358
9291331621
9291336199
9291343767
9291351458
9291357378
9291362627
9291368609
9291375811
9291381731
9291386675
9291392351
9291399858
9291405046
9291412554
9291422991
9291429766
9291436846
9291442217
9291449053
9291456560
9291463213
9291469072
9291474626
9291489641
9291496660
9291502336
9291508196
9291514116
9291521318
9291526811
9291532488
9291538530
9291542192
9291549028
9291556718
9291561845
9291566911
9291573076
9291578569
9291583574
9291591325
9291597856
9291602067
9291609025
9291615312
9291620866
9291628312
9291634355
9291639726
9291645219
9291651201
9291655595
9291661760
9291668168
9291674455
9291679948
9291684343
9291690446
9291697099
9291702348
9291710344
9291715470
9291721391
9291726579
9291732743
9291739335
9291745622
9291751786
9291758500
9291766435
9291772599
9291779191
9291786027
9291792497
9291798539
9291805680
9291811112
9291817887
9291825822
9291832963
9291839188
9291846452
9291852677
9291857499
9291865128
9291872330
9291878373
9291885941
9291892899
9291898270
9291904496
9291911515
9291918900
9291925614
9291931717
9291938981
9291944657
9291952408
9291959183
9291966019
9291970353
9291978165
9291985856
9291994461
9292000626
9292008194
9292014603
9292021866
9292027420
9292034500
9292041947
9292049637
9292054520
9292063004
9292070267
9292077530
9292084427
9292091263
9292097611
9292104447
9292110245
9292115738
9292122147
9292130020
9292137161
9292142166
9292147720
9292153885
9292161514
9292168594
9292176102
9292183548
9292187820
9292195389
9292202286
9292207290
9292214248
9292221084
9292228409
9292233658
9292239944
9292246292
9292252212
9292260269
9292266372
9292271866
9292279129
9292286087
9292290969
9292298355
9292306167
9292313613
9292320327
9292328628
9292335891
9292343887
9292353225
9292363113
9292368789
9292379714
9292387649
9292397903
9292405105
9292412490
9292419509
9292427627
9292433669
9292439773
9292446487
9292453139
9292457839
9292465652
9292472304
9292479323
9292486404
9292493728
9292499953
9292503737
9292513442
9292518813
9292524795
9292531569
9292541335
9292546950
9292552688
9292559707
9292565078
9292572890
9292578994
9292584121
9292589919
9292595107
9292600905
9292606398
9292613845
9292619277
9292623549
9292629348
9292635024
9292642226
9292647963
9292654616
9292660353
9292664931
9292671156
9292676344
9292683486
9292688918
9292695021
9292699538
9292705214
9292711012
9292717726
9292723769
9292730421
9292735976
9292740919
9292746596
9292752882
9292758925
9292764479
9292769667
9292776076
9292781325
9292786085
9292793043
9292798659
9292804457
9292811293
9292816481
9292822157
9292831068
9292837233
9292844130
9292849989
9292855421
9292862623
9292868849
9292878248
9292885389
9292890272
9292899000
9292904127
9292910047
9292917677
9292922865
9292930311
9292937696
9292942335
9292948927
9292956251
9292963453
9292969068
9292976881
9292983351
9292988416
9292998060
9293004835
9293011549
9293018263
9293023695
9293030042
9293039259
9293045850
9293052808
9293058790
9293064893
9293071607
9293077955
9293084608
9293091749
9293098157
9293102918
9293109693
9293117017
9293124341
9293130445
9293136976
9293143567
9293150037
9293155286
9293161573
9293168470
9293175794
9293180799
9293187818
9293192517
9293198926
9293208448
9293215711
9293221509
9293228040
9293233228
9293241651
9293248426
9293253797
9293260816
9293267713
9293273816
9293279736
9293286145
9293293652
9293299634
9293305554
9293312940
9293318127
9293325330
9293332349
9293338147
9293345715
9293351880
9293357556
9293365552
9293370740
9293378064
9293384839
9293390210
9293398266
9293403821
9293412549
9293419079
9293424878
9293433728
9293439038
9293446728
9293454602
9293460949
9293468090
9293475537
9293481762
9293486828
9293493786
9293500927
9293506970
9293513378
9293520397
9293527539
9293533764
9293539990
9293546459
9293552441
9293558422
9293567517
9293574719
9293580578
9293587048
9293594738
9293600964
9293607067
9293612438
9293617992
9293626781
9293632153
9293640636
9293646496
9293653332
9293660168
9293666027
9293673290
9293678173
9293684765
9293689770
9293694836
9293701305
9293708324
9293714367
9293719982
9293726024
9293731457
9293736583
9293742260
9293748729
9293753551
9293760448
9293766002
9293771923
9293777538
9293784130
9293790416
9293797863
9293803539
9293808666
9293815135
9293820385
9293827281
9293831981
9293837902
9293843028
9293849559
9293855724
9293861034
9293867870
9293874767
9293882091
9293887462
9293894115
9293902843
9293910411
9293914989
9293923228
9293929027
9293935924
9293943492
9293949351
9293954784
9293961009
9293967723
9293974437
9293981212
9293987071
9293994456
9294000438
9294004344
9294011973
9294018443
9294024974
9294031321
9294037730
9294043223
9294050181
9294058787
9294064463
9294071666
9294078379
9294088877
9294098155
9294105296
9294113658
9294120799
9294127207
9294133006
9294138987
9294146678
9294152720
9294161082
9294167124
9294173838
9294179942
9294185313
9294192210
9294199046
9294206919
9294212351
9294218638
9294225108
9294231638
9294240244
9294247324
9294253611
9294258860
9294264902
9294271860
9294278879
9294285410
9294291636
9294296030
9294302866
9294308420
9294315195
9294322153
9294330698
9294337046
9294344309
9294349314
9294356516
9294364512
9294371653
9294377573
9294383677
9294389414
9294395639
9294403452
9294409738
9294415110
9294423349
9294430429
9294439157
9294445078
9294454660
9294462412
9294468149
9294474497
9294479746
9294487070
9294494821
9294500131
9294506357
9294511362
9294518747
9294527780
9294537302
9294545297
9294553232
9294559579
9294566049
9294572641
9294580636
9294588693
9294595834
9294602182
9294609079
9294614999
9294621957
9294627511
9294634775
9294641183
9294645761
9294651803
9294656564
9294663461
9294670785
9294677255
9294683847
9294688852
9294695077
9294701974
9294706552
9294714486
9294720224
9294726083
9294732675
9294738412
9294744882
9294750558
9294756722
9294763192
9294768563
9294775765
9294781503
9294785409
9294793099
9294798653
9294804086
9294810067
9294815560
9294820199
9294827035
9294834298
9294839425
9294845528
9294851388
9294856576
9294862069
9294868478
9294873177
9294878609
9294884530
9294890206
9294895760
9294902352
9294908516
9294913460
9294919320
9294924691
9294930733
9294938790
9294945443
9294952828
9294956856
9294964302
9294969124
9294975167
9294982186
9294988778
9294995797
9295000618
9295005867
9295013375
9295021187
9295029732
9295035652
9295041878
9295047920
9295053597
9295060249
9295066292
9295072884
9295078560
9295084419
9295091072
9295100166
9295105049
9295112434
9295118904
9295125740
9295132515
9295137947
9295146370
9295151619
9295157967
9295164192
9295171883
9295177254
9295185310
9295192756
9295198860
9295206306
9295213325
9295220039
9295226509
9295234382
9295239631
9295247017
9295253364
9295259712
9295266609
9295272041
9295278389
9295287056
9295292244
9295299018
9295303840
9295310920
9295318672
9295324043
9295330879
9295337409
9295344062
9295351325
9295357002
9295365302
9295372749
9295378730
9295383979
9295392646
9295399421
9295406745
9295413093
9295418525
9295424751
9295431464
9295438850
9295444282
9295451118
9295457160
9295464240
9295471015
9295479743
9295485786
9295493232
9295498725
9295505012
9295510627
9295517096
9295525275
9295531928
9295537604
9295545417
9295550177
9295557990
9295569220
9295574714
9295581916
9295588996
9295596076
9295602057
9295609687
9295617377
9295623786
9295630561
9295637152
9295643622
9295648444
9295654975
9295662055
9295669257
9295675787
9295681403
9295688178
9295693793
9295712714
9295724310
9295729681
9295736090
9295743475
9295748419
9295755499
9295762457
9295768317
9295774237
9295781622
9295787604
9295792853
9295800299
9295806585
9295812872
9295819769
9295826727
9295832464
9295839239
9295845892
9295851080
9295857855
9295864996
9295871283
9295876348
9295882635
9295887884
9295893743
9295900091
9295906744
9295912420
9295919256
9295923773
9295930731
9295936102
9295941473
9295949529
9295955694
9295961187
9295966131
9295972479
9295978826
9295987676
9295993963
9295999700
9296006841
9296011663
9296017583
9296024541
9296030279
9296037176
9296042059
9296048406
9296053594
9296059270
9296067022
9296072271
9296079351
9296086736
9296092595
9296097906
9296105779
9296113286
9296118902
9296126165
9296130498
9296137944
9296144292
9296153020
9296159490
9296164678
9296171697
9296178472
9296184148
9296190984
9296195439
9296202397
9296209050
9296215520
9296221929
9296227788
9296233953
9296240911
9296246343
9296253057
9296259099
9296266484
9296272283
9296279118
9296286504
9296290837
9296297307
9296304570
9296310124
9296318303
9296322575
9296330327
9296336797
9296341740
9296349919
9296357060
9296363530
9296370610
9296377080
9296383000
9296389775
9296395695
9296402287
9296408574
9296414982
9296422123
9296426945
9296433598
9296439152
9296447514
9296452763
9296460759
9296466679
9296473393
9296479191
9296484562
9296492253
9296498356
9296505314
9296510441
9296518009
9296526737
9296531986
9296541020
9296546574
9296554875
9296560978
9296567021
9296573124
9296580326
9296587162
9296593388
9296599674
9296607365
9296612125
9296619694
9296625919
9296632755
9296641849
9296647526
9296655033
9296660587
9296666386
9296673832
9296680240
9296687076
9296693058
9296698429
9296705692
9296711246
9296719913
9296725284
9296732486
9296737735
9296744938
9296751468
9296758548
9296764713
9296772037
9296780399
9296787967
9296795475
9296800113
9296807559
9296814640
9296821048
9296825931
9296834049
9296840335
9296850284
9296856387
9296863895
9296869205
9296875003
9296882633
9296889224
9296894962
9296900882
9296906863
9296913089
9296918887
9296925723
9296929935
9296936954
9296947635
9296953921
9296963016
9296971988
9296981936
9296992007
9297000369
9297010562
9297020022
9297030948
9297039370
9297044131
9297052066
9297057925
9297065127
9297070193
9297077029
9297081362
9297089968
9297096255
9297103823
9297110598
9297116824
9297121951
9297128115
9297134341
9297141360
9297150149
9297158145
9297163882
9297170046
9297176150
9297183779
9297189822
9297195437
9297201785
9297208804
9297213808
9297220950
9297226992
9297233401
9297239931
9297246584
9297252199
9297258486
9297264284
9297269228
9297276919
9297282473
9297289675
9297293703
9297301394
9297306887
9297314089
9297320986
9297328310
9297334047
9297339785
9297346376
9297352114
9297358706
9297365725
9297370241
9297377260
9297383852
9297389162
9297395449
9297400576
9297406923
9297413210
9297426149
9297432070
9297438906
9297444032
9297451723
9297457460
9297463136
9297471132
9297476625
9297483522
9297489809
9297497316
9297503358
9297510927
9297515993
9297522035
9297528749
9297535280
9297542909
9297549623
9297556398
9297562257
9297567506
9297576051
9297581972
9297588930
9297595216
9297601381
9297607850
9297612794
9297620485
9297625734
9297632692
9297638795
9297646669
9297652894
9297659913
9297665712
9297672303
9297678407
9297685609
9297691529
9297698365
9297705323
9297711488
9297718141
9297725160
9297733582
9297741883
9297751710
9297758729
9297764100
9297770387
9297775758
9297783509
9297789918
9297797730
9297804017
9297811036
9297817323
9297824342
9297831055
9297837525
9297843934
9297852418
9297857117
9297864381
9297870850
9297877564
9297884095
9297891053
9297898438
9297903382
9297910340
9297917359
9297924683
9297930237
9297937928
9297944947
9297951355
9297956787
9297963745
9297971558
9297977173
9297982544
9297989746
9297995484
9298002869
9298008301
9298015747
9298021301
9298028931
9298035279
9298041748
9298048096
9298055359
9298062073
9298067383
9298074158
9298081665
9298088379
9298096619
9298102478
9298110535
9298117065
9298121948
9298129822
9298134643
9298141479
9298147705
9298154175
9298158996
9298167236
9298171997
9298178406
9298185119
9298191589
9298196350
9298204223
9298208923
9298216797
9298222046
9298228149
9298234802
9298240600
9298246399
9298253845
9298258972
9298266235
9298271423
9298277587
9298282653
9298290100
9298297912
9298304260
9298310424
9298315551
9298321838
9298328185
9298336425
9298341552
9298352111
9298361999
9298367919
9298372802
9298380492
9298385314
9298392211
9298397826
9298401855
9298408813
9298415466
9298419677
9298426513
9298432860
9298437743
9298444030
9298449584
9298456420
9298462585
9298467711
9298474669
9298479552
9298486510
9298492370
9298497741
9298504455
9298509948
9298515441
9298522216
9298532225
9298538146
9298543761
9298550536
9298554930
9298562438
9298567565
9298574950
9298579833
9298585936
9298593138
9298598082
9298605284
9298611022
9298616576
9298623351
9298629027
9298634703
9298640502
9298647276
9298653380
9298660033
9298667723
9298672911
9298678709
9298684996
9298690550
9298697752
9298705138
9298711607
9298718443
9298725340
9298731016
9298737059
9298744017
9298749693
9298756895
9298762938
9298768553
9298776365
9298781737
9298788206
9298796080
9298803282
9298809385
9298815245
9298821959
9298828428
9298835447
9298840208
9298846861
9298853575
9298860777
9298867552
9298874205
9298879759
9298886961
9298893003
9298899168
9298905821
9298912168
9298919737
9298924375
9298932371
9298938230
9298945982
9298953184
9298959776
9298965147
9298973264
9298979368
9298986448
9298991819
9299000730
9299006895
9299013303
9299019529
9299027036
9299031553
9299038206
9299044919
9299052671
9299059568
9299064756
9299071165
9299078794
9299085325
9299090146
9299097104
9299105283
9299111753
9299118100
9299124204
9299130613
9299135129
9299144712
9299151853
9299156614
9299163877
9299170713
9299177610
9299183164
9299189572
9299196591
9299202512
9299209836
9299217587
9299223630
9299230466
9299236569
9299242429
9299248593
9299254514
9299259946
9299266965
9299273373
9299280331
9299286557
9299293149
9299299435
9299306454
9299312802
9299318722
9299324887
9299332577
9299337155
9299344784
9299351987
9299359738
9299366513
9299371518
9299377926
9299384457
9299390744
9299396969
9299403500
9299409787
9299416684
9299421933
9299428280
9299435116
9299441769
9299447079
9299454159
9299460141
9299467038
9299472103
9299479367
9299484738
9299492184
9299498165
9299504818
9299510983
9299517086
9299522824
9299528500
9299533871
9299538754
9299544186
9299550411
9299556942
9299564022
9299574093
9299579525
9299587521
9299594784
9299600704
9299606380
9299612545
9299619320
9299624081
9299630855
9299636471
9299643490
9299649349
9299655453
9299661434
9299667232
9299671200
9299678341
9299682674
9299690059
9299696529
9299700802
9299708492
9299714962
9299720272
9299725155
9299732052
9299736995
9299744991
9299750301
9299757625
9299763179
9299768062
9299773555
9299781551
9299787532
9299793270
9299797359
9299804134
9299810420
9299814693
9299822078
9299828731
9299834773
9299839778
9299846065
9299852413
9299858638
9299863582
9299870479
9299877864
9299883540
9299889156
9299895686
9299901363
9299907161
9299913509
9299918025
9299925349
9299931514
9299936946
9299944697
9299951106
9299956965
9299963374
9299970820
9299977290
9299984492
9299989070
9299995723
9300002437
9300008601
9300014155
9300022578
9300028804
9300035579
9300039790
9300047175
9300054621
9300060664
9300068171
9300073725
9300081416
9300088008
9300094111
9300100032
9300106135
9300114985
9300119868
9300126826
9300133784
9300140070
9300145930
9300154292
9300159785
9300167231
9300175227
9300180720
9300187128
9300194147
9300200373
9300207636
9300214228
9300221064
9300225825
9300233759
9300238581
9300245966
9300252131
9300258784
9300265192
9300272394
9300279596
9300286127
9300292231
9300299067
9300304194
9300312983
9300320124
9300326838
9300333673
9300339167
9300346674
9300353327
9300361383
9300367304
9300374506
9300380793
9300386713
9300392816
9300400202
9300406610
9300413263
9300419428
9300426325
9300432611
9300439508
9300444513
9300451593
9300458002
9300465143
9300470697
9300477655
9300482782
9300490533
9300496515
9300503900
9300509454
9300517389
9300523370
9300531122
9300536432
9300541803
9300549249
9300555231
9300563348
9300571466
9300577813
9300584588
9300591974
9300598932
9300604913
9300610833
9300618768
9300625421
9300630670
9300635858
9300643609
9300649591
9300655816
9300661676
9300666741
9300674249
9300679986
9300685784
9300690911
9300695916
9300703240
9300709100
9300714898
9300722283
9300727654
9300733453
9300739678
9300745599
9300752007
9300757928
9300764459
9300771294
9300778252
9300784600
9300791985
9300799004
9300805657
9300813653
9300818902
9300826226
9300833672
9300840081
9300846245
9300853020
9300858086
9300864617
9300870965
9300875725
9300882500
9300890069
9300894951
9300900811
9300906975
9300912346
9300918267
9300928582
9300934380
9300941216
9300945916
9300951409
9300958611
9300966362
9300970879
9300977593
9300984490
9300988884
9300995293
9301002373
9301008965
9301015495
9301021050
9301026482
9301032707
9301038201
9301043938
9301049309
9301055351
9301062309
9301066643
9301074089
9301078667
9301085075
9301091362
9301098259
9301103691
9301111137
9301116814
9301122185
9301127617
9301135246
9301142021
9301147148
9301153862
9301159782
9301165947
9301171684
9301178886
9301187004
9301192131
9301199089
9301206657
9301211601
9301217704
9301225273
9301232353
9301239250
9301245658
9301250541
9301257377
9301262626
9301269889
9301276542
9301283622
9301290336
9301296440
9301301139
9301308280
9301314872
9301321891
9301330009
9301335990
9301342704
9301348502
9301354301
9301361259
9301369132
9301377738
9301383475
9301391532
9301396659
9301404166
9301409721
9301416495
9301425040
9301431388
9301437553
9301443473
9301449515
9301455619
9301461967
9301470145
9301475882
9301483451
9301491019
9301496024
9301503470
9301508353
9301516044
9301523978
9301530143
9301537162
9301543875
9301549308
9301556693
9301563285
9301571219
9301577689
9301583731
9301589896
9301596854
9301602896
9301609671
9301615592
9301621329
9301629202
9301634085
9301640250
9301647086
9301653983
9301660635
9301668021
9301673392
9301681631
9301688589
9301695120
9301700613
9301708182
9301713736
9301719778
9301726919
9301734122
9301739493
9301746268
9301751639
9301758963
9301764334
9301771841
9301779898
9301785818
9301791983
9301797720
9301803946
9301811026
9301817984
9301824575
9301831839
9301840200
9301846914
9301853445
9301860037
9301866323
9301873464
9301878775
9301886953
9301893606
9301900076
9301904898
9301910940
9301916189
9301922903
9301928945
9301935537
9301941457
9301948049
9301953909
9301959768
9301966116
9301973013
9301978933
9301986684
9301991933
9302000051
9302005910
9302011892
9302019765
9302025564
9302031789
9302037710
9302043813
9302049856
9302056203
9302062307
9302068654
9302074758
9302081716
9302088003
9302093129
9302101430
9302106130
9302113332
9302120107
9302125539
9302131643
9302137685
9302143605
9302150258
9302154958
9302161733
9302166555
9302173207
9302179921
9302186269
9302191640
9302198354
9302203908
9302209950
9302215566
9302221913
9302227834
9302233754
9302239369
9302244985
9302251820
9302257863
9302263234
9302269582
9302274525
9302280385
9302286610
9302293813
9302300099
9302305531
9302311757
9302315297
9302322377
9302328602
9302335377
9302340871
9302347401
9302353200
9302358265
9302365712
9302370839
9302377919
9302383717
9302389393
9302397267
9302403065
9302409474
9302414051
9302420521
9302427479
9302434193
9302442189
9302448231
9302455067
9302459950
9302466786
9302472889
9302478932
9302485890
9302492848
9302498158
9302505726
9302511830
9302518116
9302524220
9302531971
9302539356
9302544605
9302552357
9302559437
9302565235
9302573048
9302578236
9302586475
9302593983
9302601612
9302608204
9302614368
9302621448
9302627796
9302633228
9302641285
9302647510
9302653797
9302659839
9302665882
9302671863
9302678333
9302685596
9302692188
9302699329
9302704212
9302712024
9302718555
9302724964
9302731128
9302738086
9302745227
9302752857
9302757434
9302765064
9302771595
9302776660
9302784046
9302790821
9302797473
9302803882
9302810352
9302817676
9302823535
9302830737
9302837756
9302843555
9302849780
9302856799
9302862659
9302869556
9302875659
9302882617
9302887866
9302895496
9302901599
9302908435
9302915759
9302921680
9302928699
9302934192
9302942676
9302948291
9302954638
9302962512
9302967395
9302975146
9302981433
9302987536
9302994555
9302999377
9303006945
9303012988
9303019946
9303024401
9303031787
9303038562
9303044055
9303052600
9303058520
9303066149
9303072009
9303079760
9303086474
9303093920
9303100390
9303107226
9303113635
9303121752
9303126635
9303134387
9303141161
9303148669
9303156115
9303161730
9303167101
9303172289
9303180346
9303185717
9303190783
9303197192
9303204699
9303211535
9303216967
9303225634
9303231066
9303237108
9303244433
9303251024
9303256151
9303263415
9303269213
9303275805
9303281542
9303288317
9303292711
9303300097
9303306505
9303313097
9303319750
9303324511
9303331469
9303338915
9303345995
9303351854
9303362718
9303368151
9303373522
9303380541
9303386278
9303394274
9303402696
9303408067
9303413500
9303419542
9303426378
9303432054
9303437425
9303443834
9303450121
9303456651
9303464037
9303470445
9303475938
9303480699
9303487657
9303492601
9303499681
9303505235
9303511034
9303516771
9303523424
9303528978
9303533983
9303539354
9303545335
9303550828
9303557542
9303563279
9303569139
9303575486
9303581712
9303587327
9303593736
9303599107
9303605577
9303612169
9303616929
9303623460
9303629014
9303634935
9303640367
9303647203
9303654832
9303660020
9303666734
9303672288
9303678208
9303683641
9303690110
9303697923
9303704698
9303710679
9303715928
9303723435
9303729173
9303735825
9303743943
9303748826
9303756821
9303761399
9303768540
9303775559
9303781358
9303789353
9303796921
9303803147
9303810105
9303816331
9303822739
9303829026
9303836289
9303844285
9303849656
9303856553
9303861741
9303868882
9303874741
9303882065
9303889328
9303896897
9303904343
9303910019
9303917954
9303923630
9303930100
9303937302
9303943283
9303950547
9303957199
9303963791
9303969528
9303977341
9303983750
9303991684
9303997238
9304004379
9304010056
9304016892
9304022324
9304030014
9304038010
9304043503
9304049789
9304057602
9304063950
9304069443
9304075912
9304082504
9304089096
9304095444
9304101913
9304108688
9304114120
9304120773
9304126938
9304132553
9304140243
9304146408
9304153000
9304160690
9304166794
9304173080
9304178146
9304186020
9304192978
9304199508
9304204635
9304211593
9304217636
9304224166
9304230758
9304236984
9304243576
9304250473
9304256027
9304263595
9304270004
9304277694
9304284713
9304290450
9304297958
9304304427
9304311630
9304318099
9304323837
9304331161
9304339217
9304347091
9304352584
9304358993
9304365462
9304372726
9304377792
9304385787
9304390914
9304397628
9304406234
9304411239
9304417586
9304426253
9304432723
9304439498
9304445418
9304450667
9304459090
9304464156
9304471297
9304478194
9304483809
9304490462
9304496932
9304502242
9304508651
9304515425
9304521773
9304527327
9304534957
9304540206
9304546675
9304551924
9304560103
9304565291
9304571089
9304577986
9304583846
9304589278
9304598372
9304604231
9304610274
9304615706
9304620955
9304628523
9304634261
9304639571
9304645186
9304650496
9304656599
9304662398
9304668440
9304674178
9304680342
9304685957
9304692244
9304697737
9304704024
9304709273
9304714461
9304721174
9304728010
9304733809
9304739668
9304744978
9304751082
9304757307
9304762617
9304768049
9304774946
9304780134
9304785627
9304790876
9304798018
9304803389
9304810347
9304815290
9304822126
9304828596
9304832685
9304841780
9304847334
9304854231
9304859968
9304865461
9304871992
9304877607
9304882368
9304889814
9304896040
9304901350
9304908308
9304913862
9304919233
9304926435
9304933576
9304939863
9304947309
9304952131
9304958601
9304965376
9304972211
9304980756
9304987348
9304993452
9304999860
9305009199
9305014936
9305021833
9305029951
9305036054
9305042951
9305049543
9305055951
9305060468
9305068097
9305074262
9305081342
9305087934
9305094831
9305099286
9305106366
9305112958
9305119367
9305125470
9305132062
9305139997
9305147199
9305152753
9305159772
9305165570
9305173078
9305179547
9305187970
9305195111
9305200421
9305206342
9305213483
9305220014
9305231366
9305239423
9305245648
9305253156
9305259808
9305265057
9305271161
9305278790
9305285443
9305292096
9305298749
9305303509
9305310345
9305316754
9305323834
9305328717
9305336285
9305341290
9305350140
9305355145
9305361859
9305368817
9305374432
9305381451
9305388226
9305393780
9305401165
9305406536
9305413861
9305420147
9305425885
9305431256
9305440106
9305446270
9305453106
9305459515
9305465130
9305471600
9305478192
9305484478
9305492291
9305498394
9305504925
9305509686
9305517071
9305523663
9305530682
9305535809
9305543499
9305549969
9305558331
9305565777
9305572002
9305579754
9305586529
9305592998
9305600811
9305608990
9305616375
9305623211
9305630901
9305635235
9305642803
9305650676
9305658245
9305664104
9305670635
9305676311
9305682354
9305688091
9305694439
9305701702
9305706279
9305713848
9305719402
9305727703
9305733318
9305740459
9305746379
9305751811
9305759136
9305764995
9305771404
9305778911
9305784953
9305790264
9305796367
9305803752
9305810405
9305817485
9305822002
9305829387
9305835368
9305841777
9305848613
9305854411
9305860698
9305866862
9305871867
9305877971
9305883891
9305890788
9305895915
9305902019
9305907695
9305912334
9305918681
9305923381
9305932109
9305936076
9305943278
9305948771
9305954570
9305960917
9305965678
9305972392
9305977519
9305983378
9305988688
9305994853
9306001200
9306006999
9306013041
9306018534
9306024028
9306029155
9306035929
9306041362
9306046794
9306052104
9306058756
9306066020
9306071696
9306077921
9306083354
9306089396
9306095255
9306101786
9306109660
9306115214
9306120829
9306126444
9306132121
9306137614
9306145426
9306151591
9306156779
9306163004
9306169352
9306175822
9306181986
9306188578
9306197062
9306204569
9306210917
9306219401
9306225809
9306231608
9306238077
9306246134
9306252665
9306258890
9306264933
9306271219
9306278055
9306284281
9306290323
9306297586
9306304789
9306311258
9306318766
9306325418
9306332010
9306336771
9306344767
9306354227
9306360819
9306367838
9306374124
9306381143
9306387674
9306396585
9306402933
9306409464
9306416238
9306422769
9306429422
9306434488
9306440836
9306448709
9306455423
9306460367
9306467935
9306475015
9306481668
9306486734
9306494302
9306499612
9306507364
9306514383
9306520914
9306525735
9306533548
9306538370
9306545450
9306552530
9306560037
9306565652
9306572183
9306577554
9306585244
9306590615
9306598123
9306603677
9306610818
9306616067
9306623025
9306628457
9306635781
9306641946
9306648904
9306655191
9306662149
9306668496
9306675210
9306681436
9306689065
9306694802
9306701943
9306707559
9306714456
9306720803
9306726235
9306733315
9306738442
9306746133
9306753884
9306761025
9306767556
9306774819
9306781228
9306788064
9306795205
9306800942
9306808999
9306816750
9306822976
9306829751
9306839089
9306845070
9306853554
9306859963
9306869423
9306875649
9306882302
9306888039
9306895302
9306900490
9306907448
9306912697
9306919472
9306924538
9306932167
9306937599
9306945107
9306951332
9306957680
9306964577
9306970192
9306976052
9306983315
9306989357
9306996498
9307002358
9307007546
9307014015
9307020119
9307025917
9307033852
9307039772
9307046242
9307052101
9307058388
9307064308
9307070534
9307076454
9307082619
9307088539
9307094765
9307100685
9307106972
9307112709
9307119179
9307125953
9307130287
9307137184
9307143409
9307149208
9307154152
9307161964
9307167396
9307173317
9307179359
9307185341
9307190956
9307196327
9307202736
9307209266
9307214820
9307220253
9307226112
9307232399
9307237037
9307243873
9307249427
9307256446
9307261878
9307266029
9307272560
9307278785
9307284339
9307291175
9307296058
9307301246
9307308387
9307312232
9307319740
9307325111
9307331763
9307338355
9307343787
9307349769
9307355323
9307363685
9307371436
9307377540
9307383826
9307389808
9307396155
9307402198
9307409339
9307418006
9307425818
9307431800
9307436133
9307444007
9307448340
9307456153
9307462806
9307469886
9307476416
9307483313
9307489844
9307495276
9307502051
9307510901
9307518103
9307524390
9307530066
9307536780
9307544470
9307550635
9307556372
9307567969
9307574133
9307579321
9307584693
9307591956
9307597449
9307606299
9307612769
9307620154
9307626318
9307633154
9307639502
9307646033
9307652136
9307657812
9307663977
9307671179
9307677344
9307684058
9307690161
9307695532
9307701819
9307709570
9307715918
9307721899
9307728186
9307735388
9307741552
9307747717
9307753882
9307760779
9307767553
9307773962
9307778479
9307785742
9307791784
9307799170
9307805639
9307810705
9307819128
9307824438
9307831152
9307836706
9307844580
9307850500
9307857641
9307864111
9307871008
9307876379
9307883276
9307889684
9307894933
9307902197
9307908483
9307915624
9307921484
9307928198
9307935156
9307939733
9307946569
9307954198
9307960729
9307967443
9307972753
9307980688
9307986364
9307992773
9308000219
9308006994
9308014379
9308019201
9308027685
9308032689
9308042211
9308047094
9308056676
9308068456
9308075475
9308083226
9308090734
9308097631
9308104222
9308110692
9308117162
9308124425
9308130284
9308135655
9308141759
9308148961
9308155309
9308161534
9308167638
9308174291
9308180333
9308186559
9308192601
9308201085
9308205663
9308212743
9308219151
9308225072
9308232762
9308238255
9308245213
9308251805
9308258031
9308262852
9308269932
9308276524
9308283238
9308289403
9308295689
9308301610
9308308812
9308314854
9308321446
9308327611
9308333226
9308339207
9308345921
9308351964
9308359227
9308365208
9308369786
9308376439
9308382420
9308387913
9308394566
9308401341
9308405979
9308412754
9308418370
9308424229
9308429722
9308435826
9308441563
9308448460
9308453892
9308459446
9308464878
9308471104
9308476780
9308482334
9308487156
9308494846
9308500156
9308505406
9308511326
9308517368
9308522800
9308528904
9308535191
9308540623
9308546238
9308551426
9308557407
9308561802
9308569248
9308576816
9308581821
9308588047
9308593113
9308600498
9308607334
9308612705
9308624485
9308630771
9308635349
9308641880
9308649753
9308655491
9308661350
9308669284
9308674350
9308681430
9308686863
9308693210
9308700901
9308705844
9308713596
9308720066
9308726657
9308734531
9308739780
9308747653
9308752231
9308759128
9308769748
9308775119
9308783237
9308789401
9308794711
9308800144
9308809848
9308816501
9308822177
9308828281
9308835056
9308841098
9308848056
9308854221
9308860080
9308866122
9308872714
9308880954
9308885898
9308894015
9308898898
9308903415
9308912448
9308920566
9308927646
9308934115
9308940280
9308947238
9308953524
9308960666
9308967318
9308973544
9308979586
9308985812
9308992099
9308998996
9309004977
9309010287
9309017916
9309023471
9309031649
9309037631
9309044528
9309050753
9309058627
9309064913
9309071627
9309077609
9309082919
9309090426
9309096468
9309103304
9309109530
9309115817
9309122469
9309128817
9309134982
9309141817
9309148470
9309153841
9309161532
9309167635
9309174349
9309180392
9309186983
9309193392
9309198519
9309206331
9309213106
9309219210
9309226290
9309233614
9309240999
9309247652
9309256807
9309264742
9309271212
9309277864
9309284334
9309291780
9309298189
9309306002
9309311861
9309317659
9309325106
9309331453
9309339571
9309346712
9309352632
9309361788
9309368013
9309372164
9309379244
9309385957
9309391634
9309398164
9309404756
9309411592
9309416841
9309424226
9309430452
9309438081
9309443391
9309450349
9309457796
9309464509
9309470552
9309476839
9309483125
9309489412
9309493928
9309500764
9309507417
9309514436
9309518953
9309526460
9309532625
9309538911
9309544954
9309551301
9309557405
9309563813
9309568391
9309575959
9309580354
9309587983
9309595063
9309599946
9309606599
9309613130
