9074667869
9074673057
9074678550
9074683922
9074688621
9074694053
9074699730
9074704857
9074710472
9074716270
9074722801
9074727989
9074733421
9074739463
9074747398
9074754234
9074760643
9074766136
9074772361
9074780235
9074786582
9074794273
9074799461
9074807701
9074813377
9074823081
9074830100
9074837364
9074841758
9074850791
9074857566
9074864341
9074872520
9074880210
9074887229
9074895347
9074899070
9074909568
9074916648
9074922752
9074932456
9074940208
9074946311
9074956382
9074963401
9074970847
9074978599
9074982505
9074992270
9074998435
9075008078
9075014548
9075022605
9075029441
9075038352
9075045310
9075052268
9075060935
9075065879
9075073752
9075080893
9075087424
9075094809
9075102072
9075108298
9075115622
9075122763
9075133444
9075143332
9075149863
9075158102
9075166098
9075173850
9075181479
9075188986
9075196860
9075203635
9075209921
9075217978
9075225180
9075234701
9075242148
9075249350
9075253805
9075262594
9075272177
9075280111
9075287008
9075294699
9075300985
9075306662
9075314413
9075320150
9075329611
9075338156
9075344442
9075352011
9075358358
9075367758
9075374655
9075381613
9075390707
9075396688
9075404928
9075409078
9075420858
9075431844
9075441061
9075450094
9075457235
9075464864
9075472128
9075479147
9075487997
9075495199
9075503194
9075510641
9075520223
9075527853
9075536153
9075544027
9075552938
9075561117
9075568380
9075577291
9075584798
9075593221
9075601644
9075608785
9075616658
9075623494
9075632894
9075640767
9075649556
9075657796
9075664632
9075674153
9075681478
9075688985
9075697469
9075703877
9075713582
9075720479
9075727986
9075737203
9075744710
9075755696
9075762227
9075769978
9075783650
9075794026
9075803242
9075811604
9075820943
9075832417
9075839863
9075851948
9075860066
9075868001
9075876240
9075882161
9075891194
9075899189
9075907490
9075917805
9075925312
9075933796
9075942280
9075949726
9075959553
9075966755
9075972920
9075981343
9075989094
9075997029
9076003132
9076013813
9076019306
9076026875
9076033894
9076038471
9076047505
9076057270
9076066486
9076074665
9076080402
9076087666
9076094440
9076101459
9076108723
9076115314
9076123798
9076133015
9076137043
9076146198
9076153705
9076162006
9076167927
9076176410
9076184589
9076190326
9076198566
9076205829
9076211872
9076218952
9076226337
9076232563
9076241840
9076245807
9076255817
9076259723
9076268512
9076274860
9076282611
9076290424
9076297748
9076305683
9076310565
9076318927
9076323749
9076332843
9076339252
9076348468
9076355487
9076362140
9076368793
9076375323
9076381915
9076391376
9076397784
9076403155
9076410724
9076416644
9076425372
9076431659
9076440753
9076451129
9076458026
9076469623
9076476642
9076486590
9076494525
9076503070
9076510455
9076517535
9076525286
9076532428
9076540423
9076545855
9076554461
9076557940
9076567645
9076575518
9076581744
9076589129
9076595294
9076603350
9076611712
9076618914
9076624713
9076632647
9076638323
9076645403
9076652667
9076659747
9076667620
9076675188
9076682513
9076690142
9076697405
9076704974
9076714251
9076721270
9076729449
9076736529
9076744036
9076753069
9076759905
9076766375
9076775774
9076783526
9076790850
9076798662
9076805925
9076813250
9076819963
9076826738
9076834673
9076841326
9076847917
9076855303
9076861589
9076870745
9076877581
9076885698
9076893144
9076899919
9076906633
9076914568
9076921282
9076928667
9076937273
9076944231
9076950395
9076960283
9076966936
9076973466
9076977495
9076985735
9076991228
9076996660
9077003984
9077009721
9077016313
9077022783
9077028825
9077035051
9077040178
9077046342
9077052385
9077059099
9077065751
9077071000
9077077287
9077083268
9077090593
9077096757
9077101457
9077109025
9077115068
9077120927
9077128007
9077133744
9077140092
9077145524
9077151445
9077157853
9077163957
9077170243
9077176042
9077182511
9077188676
9077195573
9077201859
9077206864
9077214860
9077221757
9077228471
9077235001
9077243485
9077249833
9077257340
9077262528
9077270646
9077278519
9077285111
9077291093
9077295121
9077302933
9077308915
9077315873
9077321976
9077327225
9077335221
9077342179
9077348038
9077354203
9077362015
9077368668
9077375748
9077383255
9077389847
9077396378
9077402665
9077410233
9077417557
9077423661
9077431351
9077437149
9077444046
9077449539
9077457291
9077464981
9077472245
9077478836
9077485306
9077491959
9077498429
9077503311
9077512100
9077521256
9077527420
9077535416
9077542923
9077550003
9077555435
9077564102
9077570694
9077579605
9077586014
9077593887
9077599380
9077607132
9077613846
9077621719
9077629043
9077638016
9077643814
9077650345
9077657486
9077664078
9077670608
9077677871
9077686172
9077692276
9077700637
9077706070
9077715591
9077719986
9077730178
9077738113
9077745254
9077751235
9077758682
9077764114
9077770217
9077777420
9077784255
9077790786
9077796279
9077802749
9077807632
9077813613
9077820083
9077825820
9077831313
9077836990
9077842971
9077847732
9077852676
9077859573
9077865615
9077871841
9077876540
9077883742
9077888808
9077893447
9077900344
9077906814
9077911941
9077919509
9077924087
9077929519
9077934646
9077940505
9077947890
9077954299
9077959426
9077964675
9077970107
9077975966
9077980361
9077988845
9077994582
9078000258
9078005996
9078011184
9078016433
9078021254
9078028151
9078033400
9078037856
9078042433
9078047133
9078053298
9078058486
9078065139
9078071120
9078078322
9078082778
9078087233
9078094679
9078098952
9078105238
9078110976
9078116164
9078121108
9078127455
9078131667
9078139296
9078144423
9078150465
9078155592
9078161086
9078165724
9078174818
9078180067
9078186049
9078191115
9078197890
9078202467
9078209486
9078217299
9078224684
9078231459
9078235487
9078243971
9078249647
9078256788
9078261976
9078268873
9078275465
9078282118
9078287123
9078292982
9078300856
9078306837
9078312269
9078318617
9078326246
9078330824
9078339552
9078346327
9078353712
9078358778
9078365370
9078370741
9078377577
9078384107
9078391859
9078397108
9078403150
9078409559
9078415724
9078421766
9078428602
9078434278
9078441175
9078448682
9078454481
9078460645
9078466871
9078474500
9078480421
9078486890
9078493055
9078499525
9078505445
9078512159
9078518445
9078524793
9078532483
9078538709
9078545057
9078550794
9078557325
9078566175
9078573133
9078584119
9078591687
9078597974
9078604993
9078612561
9078619153
9078625928
9078632886
9078639173
9078645093
9078650830
9078657117
9078663159
9078668836
9078680249
9078687390
9078692761
9078701367
9078709302
9078715100
9078720654
9078728589
9078734387
9078740369
9078746838
9078753674
9078759351
9078766248
9078773694
9078777478
9078786389
9078792798
9078799695
9078807080
9078814770
9078820935
9078825940
9078833203
9078840039
9078845898
9078851574
9078859631
9078865674
9078872082
9078878735
9078885388
9078891247
9078897412
9078904980
9078912243
9078917248
9078925671
9078932324
9078938916
9078945813
9078951428
9078958447
9078964978
9078970349
9078976147
9078982189
9078988171
9078993725
9079000988
9079006542
9079012341
9079017956
9079023144
9079030224
9079037426
9079043530
9079048840
9079057629
9079065319
9079070812
9079076794
9079083324
9079089306
9079094433
9079100902
9079105419
9079112865
9079118603
9079124706
9079131908
9079137768
9079144054
9079149547
9079154796
9079162487
9079169140
9079174389
9079178600
9079186168
9079192455
9079197338
9079202709
9079209667
9079215404
9079221447
9079226451
9079233898
9079238048
9079244335
9079249156
9079256481
9079262279
9079267833
9079273082
9079277416
9079284252
9079290416
9079294628
9079300243
9079305614
9079311351
9079318065
9079324596
9079330638
9079337291
9079344066
9079349498
9079354320
9079359386
9079365611
9079372569
9079378123
9079384410
9079390208
9079395640
9079400523
9079409312
9079415965
9079421702
9079427440
9079433116
9079439097
9079445750
9079453013
9079458751
9079466563
9079472178
9079478648
9079484324
9079492320
9079498607
9079505015
9079511973
9079517405
9079524546
9079531810
9079537791
9079544261
9079549205
9079556651
9079562388
9079569346
9079577098
9079583384
9079589793
9079597300
9079602671
9079607554
9079614695
9079620493
9079627329
9079635203
9079640757
9079648081
9079652171
9079659861
9079664744
9079672068
9079679880
9079684580
9079690501
9079696421
9079703806
9079709360
9079716807
9079722910
9079729441
9079732859
9079741038
9079744517
9079752878
9079759043
9079765513
9079772715
9079778330
9079786020
9079792429
9079798533
9079805002
9079813059
9079819895
9079824839
9079832712
9079836435
9079845590
9079853525
9079859323
9079866892
9079873056
9079880014
9079886606
9079893564
9079902048
9079908762
9079915048
9079918466
9079926218
9079932748
9079938425
9079943674
9079950876
9079957651
9079962717
9079969431
9079974802
9079981699
9079987924
9079995309
9080002634
9080007883
9080015512
9080021249
9080027292
9080033273
9080040353
9080046457
9080053598
9080060067
9080065744
9080072519
9080078988
9080085580
9080091745
9080098520
9080103891
9080109140
9080115609
9080122567
9080127877
9080134286
9080139779
9080146859
9080151559
9080158151
9080164315
9080171395
9080177804
9080183724
9080189645
9080194772
9080201608
9080204965
9080213021
9080219308
9080225839
9080231454
9080237557
9080242745
9080248788
9080255563
9080261666
9080268136
9080271432
9080279793
9080286385
9080292000
9080297616
9080304696
9080310616
9080318246
9080323189
9080329232
9080334298
9080340279
9080346566
9080353951
9080360055
9080365426
9080370553
9080376595
9080382943
9080389595
9080395028
9080400460
9080405892
9080412484
9080418343
9080425179
9080431282
9080437386
9080444527
9080449654
9080456978
9080463082
9080468819
9080474556
9080480782
9080485848
9080493050
9080497200
9080503914
9080510506
9080516182
9080522469
9080527351
9080533821
9080538338
9080546761
9080552986
9080558784
9080564156
9080570198
9080576546
9080580940
9080589058
9080594185
9080601082
9080607063
9080611519
9080618538
9080624885
9080630928
9080638740
9080644417
9080652168
9080656746
9080663154
9080670112
9080675789
9080683906
9080690315
9080696785
9080703132
9080710456
9080716499
9080723457
9080730842
9080738899
9080743415
9080750495
9080757636
9080763313
9080770576
9080777107
9080784065
9080788581
9080796272
9080801399
9080808967
9080816657
9080822334
9080829658
9080835944
9080841010
9080847236
9080854987
9080860603
9080867927
9080873969
9080880378
9080886420
9080891913
9080898688
9080905891
9080913520
9080919745
9080926276
9080932380
9080937873
9080944953
9080950934
9080959235
9080966315
9080973700
9080980536
9080986090
9080994025
9081000434
9081007087
9081013312
9081019049
9081025458
9081030585
9081038092
9081043585
9081050421
9081058356
9081064093
9081070258
9081076605
9081083869
9081088934
9081096381
9081102850
9081108771
9081114508
9081121527
9081127875
9081133795
9081142218
9081148932
9081155157
9081161688
9081167242
9081175482
9081181647
9081187445
9081195807
9081200629
9081207159
9081212836
9081220038
9081226690
9081233404
9081239508
9081246039
9081251776
9081256537
9081264471
9081270758
9081276434
9081283514
9081288275
9081295660
9081299200
9081306890
9081313604
9081319464
9081325384
9081331854
9081337652
9081341802
9081348211
9081355779
9081362371
9081367986
9081373663
9081376898
9081384222
9081390386
9081397039
9081402776
9081410101
9081415472
9081421148
9081426641
9081432439
9081440862
9081445745
9081450750
9081458013
9081461614
9081468694
9081474248
9081480596
9081487310
9081492986
9081498968
9081504400
9081510137
9081515813
9081523443
9081529973
9081535528
9081541936
9081547796
9081552800
9081559453
9081565862
9081570867
9081576909
9081581975
9081587896
9081593816
9081600347
9081606816
9081612126
9081617986
9081623418
9081628301
9081634038
9081639653
9081645879
9081651067
9081657353
9081662969
9081668035
9081673161
9081679265
9081686223
9081692143
9081697270
9081702641
9081708318
9081713994
9081720586
9081727422
9081737065
9081743291
9081748601
9081753972
9081759770
9081765019
9081770756
9081777348
9081786015
9081793034
9081798649
9081804448
9081809941
9081817753
9081823552
9081829777
9081836247
9081841923
9081848454
9081854374
9081861027
9081867558
9081874211
9081880680
9081885563
9081892949
9081898014
9081905949
9081911076
9081918339
9081924259
9081930607
9081936650
9081942692
9081949345
9081956547
9081963383
9081968327
9081975834
9081981510
9081987736
9081995915
9082002201
9082009159
9082014957
9082022404
9082028141
9082034000
9082041508
9082047733
9082054935
9082061588
9082067997
9082076664
9082083500
9082089725
9082099430
9082104984
9082111088
9082118595
9082124210
9082129947
9082135929
9082143741
9082150211
9082155155
9082161686
9082166568
9082173710
9082177250
9082186954
9082193607
9082198612
9082204654
9082210941
9082216434
9082223209
9082229007
9082236820
9082243595
9082249271
9082255252
9082261417
9082267825
9082274600
9082280643
9082287967
9082294803
9082300601
9082307132
9082312991
9082318851
9082325809
9082332156
9082337589
9082344546
9082349490
9082356631
9082362552
9082369144
9082375430
9082382754
9082388125
9082394717
9082400088
9082406375
9082413516
9082419375
9082425479
9082431033
9082437076
9082443423
9082448123
9082458072
9082463870
9082469790
9082475833
9082480594
9082486819
9082493655
9082498538
9082505862
9082511111
9082517886
9082523928
9082530459
9082535525
9082543521
9082549380
9082555606
9082562502
9082567935
9082574954
9082580691
9082585513
9082590395
9082598452
9082604617
9082611636
9082617983
9082622683
9082630618
9082638430
9082644656
9082651125
9082655642
9082663088
9082668764
9082674319
9082681521
9082687319
9082692385
9082698977
9082703615
9082710451
9082716555
9082721560
9082726931
9082732912
9082738100
9082742312
9082748964
9082755800
9082759890
9082765627
9082770876
9082776857
9082781984
9082789125
9082792482
9082799135
9082805727
9082811098
9082817079
9082823244
9082829775
9082835695
9082842531
9082849062
9082855593
9082862856
9082868715
9082874330
9082881471
9082887209
9082892458
9082898561
9082904421
9082910646
9082916322
9082922731
9082929811
9082935121
9082941774
9082946474
9082953371
9082958864
9082966493
9082971376
9082978090
9082984254
9082990724
9082997255
9083004823
9083011720
9083016481
9083025026
9083031984
9083038148
9083045717
9083053407
9083059999
9083066041
9083073304
9083079652
9083085878
9083092714
9083099855
9083105653
9083112672
9083119386
9083126588
9083132508
9083136964
9083145387
9083153016
9083159364
9083166017
9083171449
9083179444
9083187928
9083195619
9083202149
9083207459
9083214600
9083221009
9083227052
9083235352
9083241273
9083248597
9083255006
9083261048
9083266724
9083273621
9083280457
9083286439
9083294617
9083298401
9083307618
9083314087
9083318909
9083325623
9083332947
9083339173
9083344117
9083351258
9083355164
9083364869
9083371033
9083377808
9083385071
9083390686
9083398682
9083404541
9083410401
9083418274
9083423645
9083432129
9083438904
9083445740
9083451660
9083458008
9083466370
9083472534
9083478577
9083485840
9083493225
9083499573
9083504944
9083511841
9083518127
9083527039
9083532715
9083539001
9083546875
9083552429
9083559448
9083565185
9083572998
9083579651
9083586365
9083593078
9083598999
9083605408
9083610595
9083617798
9083623779
9083629944
9083635376
9083640014
9083647339
9083655578
9083661438
9083666137
9083672058
9083677673
9083684448
9083690979
9083695983
9083704345
9083710144
9083716003
9083721984
9083726623
9083734130
9083740478
9083748046
9083754943
9083760253
9083767272
9083771789
9083779235
9083784850
9083790038
9083796813
9083801147
9083808715
9083814025
9083820068
9083826293
9083830505
9083837829
9083843444
9083848815
9083855895
9083862182
9083867187
9083874023
9083878234
9083884154
9083889037
9083895934
9083901977
9083907836
9083914062
9083920043
9083924987
9083931029
9083937743
9083944762
9083949584
9083954772
9083961058
9083966430
9083972350
9083977294
9083985411
9083990599
9083996642
9084004088
9084008666
9084016173
9084019591
9084028014
9084035826
9084040282
9084046813
9084051146
9084057860
9084063841
9084069884
9084075865
9084081603
9084087401
9084093565
9084101073
9084108153
9084115538
9084122313
9084129454
9084135313
9084142454
9084148558
9084156676
9084162779
9084168944
9084175230
9084180907
9084187254
9084193419
9084200255
9084207213
9084212156
9084220030
9084227110
9084233641
9084240049
9084247618
9084254820
9084260740
9084266966
9084274656
9084281675
9084288511
9084293943
9084303160
9084309263
9084315245
9084322569
9084330870
9084338194
9084344786
9084351133
9084356565
9084362913
9084369016
9084374632
9084382017
9084387266
9084395017
9084402891
9084408018
9084416135
9084421262
9084428220
9084434263
9084442564
9084448057
9084455137
9084461423
9084467466
9084473386
9084480710
9084487791
9084493040
9084499509
9084504575
9084511960
9084519101
9084525632
9084531980
9084538694
9084546384
9084551328
9084558469
9084564328
9084572690
9084578550
9084585569
9084593381
9084598386
9084604612
9084611203
9084618161
9084624753
9084631406
9084639096
9084644528
9084651608
9084657285
9084663571
9084670102
9084676511
9084683774
9084689389
9084696652
9084702451
9084708737
9084715878
9084723386
9084730649
9084736935
9084743466
9084749936
9084756955
9084762997
9084769101
9084774655
9084780942
9084786557
9084791379
9084797116
9084805539
9084811642
9084815060
9084822751
9084828610
9084834286
9084839840
9084846249
9084854062
9084862240
9084868710
9084875973
9084881955
9084887997
9084894589
9084901242
9084907162
9084913388
9084918515
9084924130
9084930233
9084935238
9084941525
9084947811
9084954220
9084961178
9084967465
9084974667
9084980587
9084986263
9084992916
9084997555
9085004391
9085007809
9085015499
9085022884
9085026913
9085033749
9085038082
9085044369
9085050899
9085056271
9085062801
9085067501
9085074947
9085079769
9085087032
9085092098
9085097896
9085104549
9085110836
9085115108
9085122616
9085127315
9085134517
9085140377
9085145443
9085152156
9085157344
9085164425
9085171016
9085177669
9085185298
9085191158
9085196468
9085203426
9085208858
9085214900
9085220760
9085227657
9085233516
9085239437
9085244869
9085251460
9085256587
9085264278
9085270747
9085275874
9085283199
9085289363
9085295833
9085302242
9085309444
9085315608
9085320491
9085328120
9085331844
9085340266
9085347407
9085354426
9085361629
9085367061
9085374385
9085381892
9085388301
9085396052
9085402827
9085411067
9085417842
9085423823
9085428950
9085435420
9085441279
9085447627
9085455561
9085460444
9085467891
9085474788
9085481501
9085487239
9085495417
9085501399
9085507075
9085512873
9085519221
9085525202
9085531611
9085538447
9085545466
9085550532
9085558039
9085564997
9085570368
9085576716
9085584284
9085591303
9085598689
9085604792
9085610041
9085616022
9085622065
9085629450
9085637690
9085643305
9085651179
9085656916
9085662897
9085670771
9085676935
9085685358
9085689448
9085697382
9085703852
9085710627
9085717157
9085724054
9085730158
9085735834
9085744074
9085750605
9085757929
9085766108
9085772638
9085778986
9085786676
9085793817
9085801935
9085808893
9085817011
9085824030
9085830438
9085837641
9085844721
9085851068
9085856745
9085862665
9085871637
9085878595
9085882623
9085892511
9085899408
9085904901
9085913141
9085919916
9085927911
9085934137
9085941095
9085947198
9085952692
9085959222
9085966730
9085972711
9085979608
9085987115
9085995050
9086000909
9086007379
9086012933
9086019891
9086025262
9086030694
9086038690
9086045221
9086052301
9086057855
9086062555
9086070001
9086075067
9086082208
9086089471
9086096734
9086103570
9086110162
9086115411
9086121697
9086125665
9086132806
9086138177
9086144891
9086149346
9086156426
9086163384
9086167779
9086174004
9086181390
9086186883
9086192132
9086199151
9086204400
9086209405
9086215325
9086221612
9086226739
9086231683
9086237786
9086243401
9086248589
9086255059
9086261223
9086267510
9086272576
9086279229
9086284112
9086289849
9086296502
9086304253
9086309441
9086316033
9086320366
9086327019
9086332940
9086339043
9086343804
9086351921
9086357964
9086364495
9086370720
9086375298
9086382683
9086389336
9086394646
9086400383
9086407036
9086412773
9086419243
9086425286
9086431145
9086436882
9086444328
9086450371
9086456474
9086463310
9086470329
9086476555
9086481987
9086490471
9086495476
9086503654
9086508293
9086518547
9086525749
9086533318
9086539543
9086545219
9086553947
9086560173
9086567680
9086574516
9086580620
9086586906
9086593681
9086599602
9086605705
9086611992
9086621391
9086626335
9086633537
9086638542
9086646537
9086653740
9086658989
9086667411
9086671989
9086678947
9086685600
9086691703
9086697380
9086704093
9086710014
9086719413
9086725395
9086731620
9086738151
9086744560
9086752189
9086759330
9086765189
9086770622
9086779289
9086783012
9086792289
9086798393
9086805045
9086812492
9086817619
9086825309
9086832450
9086837516
9086844474
9086851859
9086859550
9086865653
9086871757
9086878959
9086883353
9086891105
9086897574
9086905936
9086912162
9086918692
9086923514
9086930594
9086937980
9086946891
9086953421
9086958670
9086965873
9086972770
9086978080
9086984671
9086992667
9087000113
9087007132
9087013297
9087018424
9087024405
9087032218
9087037833
9087045523
9087049124
9087058646
9087066214
9087071829
9087079764
9087085928
9087095572
9087101614
9087109061
9087115286
9087121939
9087128409
9087135245
9087140921
9087146719
9087154959
9087159781
9087166373
9087170706
9087179861
9087186941
9087192557
9087199209
9087203970
9087211722
9087216543
9087223501
9087229788
9087236441
9087242483
9087249258
9087255728
9087262930
9087269094
9087276602
9087281912
9087287466
9087293142
9087300527
9087305715
9087316946
9087325430
9087335684
9087344412
9087349050
9087358328
9087365347
9087371755
9087378591
9087383779
9087392568
9087398550
9087405569
9087411184
9087417471
9087422658
9087429189
9087434499
9087442068
9087447805
9087455923
9087461172
9087467702
9087473134
9087477956
9087484792
9087490713
9087496511
9087502492
9087507863
9087512685
9087518972
9087525258
9087531606
9087538137
9087545522
9087551625
9087557546
9087564382
9087569814
9087575002
9087582326
9087588430
9087593801
9087599843
9087605336
9087611989
9087617604
9087624318
9087629079
9087636403
9087642629
9087648976
9087656667
9087664235
9087670888
9087676381
9087683644
9087687306
9087695424
9087702321
9087707143
9087714589
9087721364
9087726918
9087731374
9087739369
9087744679
9087752064
9087757985
9087766408
9087773305
9087779408
9087784901
9087790761
9087796864
9087803456
9087810780
9087816456
9087823781
9087829823
9087836659
9087842457
9087848988
9087856495
9087864491
9087869252
9087877064
9087882496
9087890309
9087894459
9087903004
9087911671
9087916798
9087923451
9087928089
9087938282
9087944019
9087950306
9087956959
9087963184
9087971790
9087979054
9087984180
9087991749
9087997364
9088004932
9088010731
9088017750
9088022083
9088031055
9088038563
9088044849
9088051990
9088057178
9088065784
9088069324
9088078846
9088084400
9088091724
9088099109
9088103992
9088112476
9088119190
9088125843
9088131458
9088137928
9088145130
9088150684
9088158741
9088166065
9088171070
9088179676
9088186023
9088193103
9088196887
9088205493
9088212512
9088219776
9088226673
9088234668
9088241931
9088248645
9088255359
9088261707
9088267932
9088276477
9088281360
9088287830
9088294360
9088299365
9088306995
9088312305
9088318347
9088325427
9088332019
9088338061
9088342944
9088350940
9088358508
9088362903
9088369250
9088373950
9088381518
9088387683
9088393542
9088399829
9088405627
9088413012
9088419299
9088424792
9088432605
9088438769
9088444995
9088451037
9088456958
9088462878
9088469531
9088475756
9088481311
9088488818
9088493518
9088499926
9088504016
9088510241
9088515612
9088521777
9088526965
9088533679
9088539843
9088545397
9088551074
9088556750
9088561450
9088567553
9088574694
9088581042
9088586413
9088592272
9088598315
9088603991
9088610644
9088615038
9088621508
9088626940
9088633593
9088639147
9088645861
9088651903
9088658922
9088664416
9088671190
9088676195
9088682848
9088687853
9088695727
9088701952
9088707811
9088713121
9088719835
9088726244
9088734179
9088739061
9088749437
9088756700
9088761949
9088767565
9088775499
9088783007
9088789537
9088796312
9088801134
9088807909
9088813280
9088818834
9088826708
9088831651
9088838793
9088843858
9088850939
9088858873
9088865892
9088871080
9088877855
9088885240
9088888841
9088897447
9088904161
9088911424
9088918748
9088925218
9088931200
9088938280
9088943468
9088950059
9088958543
9088968370
9088975328
9088981981
9088987840
9088994249
9089001512
9089006578
9089014268
9089020738
9089026658
9089034959
9089040330
9089049119
9089056321
9089062425
9089069200
9089076341
9089083238
9089088365
9089097459
9089103929
9089109849
9089116502
9089121507
9089130418
9089136949
9089143662
9089150865
9089156480
9089164964
9089169358
9089177537
9089185166
9089190293
9089198655
9089203721
9089211594
9089218430
9089224534
9089231858
9089237473
9089245652
9089251267
9089258042
9089264512
9089270676
9089276780
9089282395
9089290940
9089296860
9089304123
9089312363
9089318039
9089324997
9089332871
9089339890
9089347824
9089352280
9089361557
9089369614
9089377854
9089383713
9089390915
9089399399
9089406418
9089413803
9089420761
9089427902
9089435166
9089440781
9089448410
9089455673
9089461838
9089467270
9089473557
9089480148
9089486191
9089493393
9089497910
9089504318
9089510788
9089516342
9089521774
9089532028
9089537826
9089544601
9089550033
9089556381
9089563644
9089567062
9089575241
9089581589
9089587692
9089593918
9089599533
9089606003
9089612167
9089619247
9089626632
9089631149
9089637375
9089643600
9089650131
9089655075
9089662155
9089668624
9089673873
9089680465
9089685714
9089690109
9089695602
9089701400
9089708114
9089715316
9089721359
9089726669
9089731429
9089736923
9089743026
9089749435
9089754440
9089759139
9089766891
9089769759
9089777450
9089783187
9089788436
9089794418
9089799911
9089805831
9089812057
9089817611
9089822799
9089829452
9089835494
9089841292
9089846664
9089852340
9089857528
9089863814
9089871261
9089878097
9089884078
9089891280
9089899276
9089905379
9089912520
9089920394
9089927474
9089934859
9089941390
9089947066
9089953109
9089958724
9089965255
9089972029
9089978621
9089984908
9089991072
9089996932
9090004073
9090010787
9090017256
9090023421
9090028731
9090036482
9090042708
9090047835
9090057906
9090063033
9090069502
9090076704
9090081343
9090087202
9090095076
9090109480
9090115095
9090121443
9090128889
9090136641
9090143049
9090149092
9090154890
9090163801
9090169417
9090175276
9090182295
9090189192
9090197310
9090202070
9090208906
9090216230
9090224043
9090231062
9090236738
9090244307
9090247847
9090255842
9090262861
9090270674
9090276838
9090282026
9090288984
9090296003
9090302290
9090308515
9090313398
9090320173
9090326338
9090334211
9090337873
9090347212
9090354170
9090359663
9090366132
9090372785
9090381086
9090387495
9090395795
9090402692
9090409284
9090416791
9090422407
9090429304
9090433820
9090440961
9090448102
9090453473
9090462629
9090468244
9090475934
9090481122
9090490033
9090495527
9090502729
9090509076
9090514020
9090522260
9090525739
9090534223
9090541486
9090547101
9090554120
9090560956
9090568708
9090573224
9090582563
9090590680
9090596601
9090604962
9090611737
9090618512
9090622968
9090632062
9090638837
9090646954
9090654034
9090658734
9090665875
9090672528
9090676862
9090683209
9090690228
9090697797
9090701398
9090708661
9090714459
9090720380
9090726056
9090732342
9090738934
9090743573
9090750287
9090757123
9090763409
9090769513
9090776837
9090784039
9090789532
9090795147
9090801190
9090806927
9090812787
9090819989
9090826397
9090830182
9090839337
9090844403
9090850811
9090858990
9090864727
9090871502
9090878094
9090883648
9090888348
9090892987
9090900128
9090906109
9090912335
9090918194
9090923687
9090928753
9090933697
9090940533
9090946575
9090952862
9090958721
9090964031
9090969708
9090974468
9090981853
9090988628
9090993877
9091000164
9091004681
9091011455
9091017315
9091023907
9091030132
9091034893
9091042461
9091047161
9091053875
9091060894
9091067058
9091074627
9091079937
9091087749
9091093853
9091099285
9091105144
9091111858
9091119060
9091124065
9091132732
9091138652
9091144573
9091150371
9091155864
9091163860
9091169475
9091175334
9091181987
9091188457
9091194927
9091202678
9091209514
9091213420
9091221477
9091228130
9091234538
9091240886
9091247966
9091255534
9091262431
9091269145
9091274455
9091283855
9091290507
9091298198
9091304851
9091310100
9091317485
9091323649
9091331462
9091337382
9091345195
9091351970
9091357402
9091364116
9091370585
9091376079
9091382853
9091389872
9091395793
9091400920
9091408061
9091413920
9091420390
9091426799
9091433085
9091439799
9091446147
9091453532
9091460063
9091466471
9091472331
9091478861
9091486186
9091492533
9091500529
9091506022
9091512431
9091518595
9091525309
9091533183
9091536723
9091544962
9091551188
9091557230
9091564433
9091571452
9091578288
9091584086
9091592875
9091599528
9091606303
9091613261
9091622477
9091627848
9091635050
9091641215
9091648600
9091655131
9091661051
9091668986
9091674967
9091681925
9091687540
9091695292
9091700663
9091708109
9091714029
9091722574
9091729227
9091735514
9091741922
9091748697
9091755350
9091763101
9091769449
9091776041
9091783731
9091790262
9091796793
9091804727
9091809793
9091818582
9091823709
9091831278
9091837259
9091843057
9091847818
9091854593
9091861917
9091866678
9091873575
9091878946
9091885843
9091892496
9091898843
9091905252
9091911600
9091918130
9091924844
9091930215
9091938028
9091944314
9091951639
9091955362
9091962991
9091968912
9091976175
9091981363
9091989297
9091995279
9092002298
9092008462
9092014383
9092020608
9092025125
9092033059
9092040200
9092045205
9092051675
9092057534
9092062905
9092068460
9092074929
9092080972
9092086038
9092090859
9092098611
9092102944
9092108438
9092114907
9092119790
9092127175
9092131997
9092137063
9092144204
9092152444
9092157815
9092164040
9092170144
9092177651
9092183083
9092188271
9092193887
9092201089
9092205544
9092213235
9092218301
9092223916
9092231789
9092238625
9092245583
9092249673
9092256203
9092260598
9092268410
9092274453
9092279519
9092286538
9092290322
9092297646
9092303200
9092309609
9092315529
9092320168
9092327614
9092332741
9092338295
9092346108
9092352516
9092357582
9092364235
9092369667
9092377358
9092380776
9092390175
9092395607
9092401528
9092408364
9092415199
9092420509
9092426308
9092433571
9092440224
9092446022
9092452370
9092459389
9092466530
9092471962
9092479164
9092484718
9092492104
9092497536
9092503029
9092508705
9092514870
9092522316
9092529396
9092536232
9092543922
9092550148
9092557472
9092567604
9092573158
9092579567
9092585853
9092592567
9092599464
9092605201
9092612342
9092620704
9092627357
9092633827
9092640297
9092647377
9092655067
9092661232
9092667762
9092674903
9092682289
9092689186
9092694374
9092702308
9092710365
9092716224
9092722633
9092730140
9092736060
9092743324
9092749183
9092758521
9092763709
9092770972
9092777198
9092783546
9092790137
9092797828
9092805152
9092810523
9092816993
9092822181
9092830665
9092837195
9092845435
9092852515
9092859717
9092865699
9092873023
9092879371
9092886084
9092893103
9092900245
9092906714
9092914283
9092920264
9092929236
9092935706
9092942603
9092948828
9092957923
9092963355
9092969397
9092977271
9092984534
9092990821
9092996253
9093003638
9093007117
9093014929
9093020606
9093025305
9093033118
9093039587
9093046606
9093051611
9093059241
9093064856
9093070410
9093076208
9093083716
9093090674
9093094214
9093102270
9093109656
9093115698
9093122961
9093129553
9093135107
9093142004
9093148596
9093154577
9093160437
9093165991
9093173620
9093179968
9093186987
9093192114
9093198584
9093204138
9093209692
9093215918
9093221472
9093226355
9093233496
9093238806
9093244787
9093250585
9093257177
9093264379
9093271765
9093276403
9093283666
9093288488
9093295812
9093302221
9093307531
9093314062
9093319738
9093325964
9093329931
9093337743
9093343664
9093349706
9093355444
9093362035
9093367284
9093373632
9093378149
9093384740
9093391393
9093397314
9093403966
9093408910
9093416112
9093423376
9093429235
9093434972
9093440221
9093446630
9093453466
9093460058
9093466771
9093472875
9093479101
9093483617
9093490392
9093496251
9093502721
9093510350
9093515477
9093521703
9093528905
9093535070
9093541051
9093547582
9093552953
9093560887
9093567845
9093573400
9093578527
9093584813
9093593114
9093599645
9093605992
9093612340
9093619542
9093624791
9093632420
9093638097
9093644200
9093652989
9093660069
9093666722
9093672704
9093678258
9093686070
9093691991
9093699559
9093703282
9093711217
9093718175
9093724400
9093731297
9093737950
9093744359
9093752537
9093759251
9093766026
9093771580
9093778599
9093785923
9093792759
9093799351
9093806858
9093813511
9093819371
9093827244
9093831211
9093839878
9093847142
9093854100
9093859837
9093866551
9093873081
9093880833
9093885777
9093893040
9093899265
9093905796
9093913426
9093918736
9093926670
9093933872
9093939915
9093947117
9093951817
9093960239
9093966770
9093974705
9093980808
9093987095
9093990940
9093999668
9094003635
9094013706
9094020847
9094027195
9094035190
9094040806
9094050205
9094059177
9094065708
9094073398
9094080661
9094087619
9094093723
9094100559
9094107517
9094115879
9094124179
9094131443
9094139316
9094143283
9094151096
9094157443
9094165134
9094170688
9094175632
9094182529
9094189426
9094195285
9094202182
9094207614
9094214938
9094218662
9094227268
9094232944
9094239230
9094246005
9094251437
9094259006
9094264743
9094270175
9094276584
9094283786
9094290073
9094295505
9094304477
9094309360
9094315280
9094321811
9094326877
9094332858
9094338717
9094347018
9094353366
9094358920
9094364535
9094369784
9094378573
9094383456
9094390231
9094397067
9094403170
9094409579
9094416476
9094422702
9094428134
9094433200
9094439425
9094446261
9094452059
9094457919
9094463778
9094471530
9094476840
9094483554
9094488497
9094493502
9094501376
9094506930
9094511996
9094521151
9094526400
9094533663
9094538973
9094544711
9094550997
9094556002
9094563204
9094570467
9094576449
9094583102
9094590792
9094596285
9094602633
9094608248
9094614046
9094620394
9094629183
9094636019
9094641634
9094647982
9094653902
9094659701
9094665072
9094673006
9094679476
9094686434
9094693758
9094700228
9094706392
9094713716
9094719271
9094727449
9094734468
9094740572
9094745943
9094753023
9094760042
9094767061
9094775179
9094780245
9094788606
9094795137
9094801241
9094807039
9094813570
9094821260
9094826936
9094834200
9094841585
9094848543
9094854951
9094861360
9094869051
9094874361
9094881013
9094889558
9094894502
9094903413
9094910188
9094916902
9094924531
9094929963
9094938691
9094945527
9094954011
9094961274
9094967439
9094973604
9094980745
9094986543
9094993806
9095000520
9095008943
9095015107
9095021577
9095029573
9095034455
9095041352
9095048432
9095055085
9095061250
9095067842
9095074006
9095080598
9095087190
9095094880
9095099885
9095106721
9095112519
9095119294
9095126618
9095133088
9095138520
9095146272
9095149995
9095162202
9095167512
9095173554
9095179902
9095188203
9095195283
9095202607
9095208710
9095214936
9095221406
9095227875
9095237214
9095245331
9095250580
9095257416
9095263764
9095270112
9095276459
9095283417
9095290253
9095296906
9095303803
9095310639
9095315522
9095323822
9095328583
9095335236
9095342377
9095350128
9095355927
9095362274
9095368561
9095373505
9095379730
9095386505
9095393585
9095398956
9095405060
9095410248
9095416962
9095422455
9095429413
9095437225
9095443695
9095449005
9095456268
9095461822
9095468475
9095476044
9095483490
9095489410
9095495575
9095502228
9095510406
9095517486
9095524200
9095530182
9095536651
9095543487
9095550018
9095554718
9095562774
9095567962
9095572906
9095580413
9095584991
9095591644
9095597137
9095602630
9095608245
9095614471
9095620575
9095625701
9095631073
9095638031
9095645416
9095651641
9095656646
9095663909
9095669464
9095674957
9095680572
9095687225
9095692169
9095697540
9095703460
9095708587
9095715240
9095721221
9095726714
9095732085
9095738982
9095743621
9095749725
9095756072
9095761626
9095769195
9095773711
9095781036
9095786712
9095792632
9095799102
9095804717
9095811980
9095818389
9095824981
9095829314
9095837005
9095843657
9095851043
9095856353
9095863677
9095868682
9095875396
9095880767
9095888884
9095893767
9095902983
9095909209
9095915435
9095917449
9095926787
9095933745
9095942412
9095948821
9095952727
9095960417
9095966399
9095972380
9095978972
9095986601
9095992095
9095997527
9096004057
9096010039
9096016631
9096024199
9096032256
9096038542
9096043608
9096052763
9096060271
9096066801
9096072295
9096080229
9096088042
9096094145
9096100920
9096106779
9096113981
9096121550
9096127836
9096133879
9096141020
9096147917
9096153532
9096159514
9096167814
9096174711
9096180693
9096186735
9096193022
9096200041
9096205168
9096212919
9096219755
9096227568
9096233732
9096240080
9096246122
9096250761
9096258634
9096264433
9096272306
9096278288
9096285734
9096289701
9096298368
9096304960
9096309782
9096317411
9096324186
9096330961
9096336393
9096343046
9096349149
9096356718
9096365629
9096370817
9096378019
9096385404
9096392057
9096398832
9096405973
9096412687
9096419706
9096426847
9096433683
9096440580
9096447904
9096455716
9096463224
9096470304
9096474088
9096483487
9096490751
9096497831
9096505399
9096512174
9096520719
9096527127
9096533597
9096539334
9096545560
9096552396
9096557462
9096565213
9096572171
9096578336
9096584195
9096590238
9096596402
9096601346
9096610379
9096615811
9096623563
9096629544
9096635464
9096642056
9096649991
9096656827
9096663419
9096670743
9096676724
9096683072
9096692227
9096698270
9096704556
9096710354
9096715298
9096723477
9096729764
9096735318
9096741177
9096747525
9096752713
9096758877
9096764431
9096770169
9096776394
9096782620
9096789578
9096794888
9096801052
9096806607
9096813015
9096819790
9096825589
9096831082
9096837063
9096841763
9096847195
9096853420
9096858242
9096865200
9096870449
9096876248
9096882412
9096888027
9096894070
9096899380
9096906338
9096911648
9096917385
9096923367
9096929897
9096935635
9096942287
9096947964
9096954617
9096959255
9096967129
9096973232
9096978298
9096986233
9096991299
9096999721
9097004604
9097010708
9097017666
9097023281
9097030788
9097036098
9097042202
9097049038
9097055629
9097060817
9097066799
9097074123
9097079433
9097086452
9097093227
9097099514
9097107387
9097112575
9097120449
9097126735
9097133388
9097139369
9097147670
9097154506
9097161830
9097167934
9097175319
9097182399
9097188808
9097194484
9097202113
9097208949
9097216151
9097222560
9097229335
9097235622
9097243983
9097251918
9097258998
9097264430
9097272121
9097278041
9097286464
9097292811
9097299098
9097305263
9097311732
9097317897
9097324183
9097331996
9097338649
9097345668
9097352504
9097359523
9097365931
9097372645
9097377101
9097384486
9097392421
9097399195
9097404872
9097412440
9097416041
9097424098
9097431422
9097438075
9097444850
9097450770
9097458521
9097464381
9097470484
9097476954
9097484217
9097490931
9097494593
9097503993
9097509364
9097515162
9097522303
9097529078
9097536829
9097544459
9097549952
9097556544
9097564417
9097570948
9097579127
9097586390
9097592676
9097599756
9097606959
9097611902
9097620386
9097626673
9097635157
9097640772
9097649195
9097653711
9097662500
9097669703
9097676844
9097683924
9097689783
9097696985
9097702356
9097709375
9097714441
9097720362
9097727259
9097734461
9097740320
9097746057
9097750025
9097757044
9097764063
9097770960
9097778406
9097784448
9097790796
9097797693
9097804834
9097811731
9097817285
9097825952
9097831384
9097838220
9097843835
9097849817
9097858179
9097864770
9097870996
9097878137
9097884302
9097889795
9097896020
9097902002
9097908960
9097912439
9097920495
9097925989
9097930993
9097938379
9097942895
9097950769
9097955468
9097961023
9097966027
9097971154
9097977319
9097985437
9097991052
9097996789
9098002710
9098009484
9098014428
9098021508
9098028649
9098034020
9098040551
9098046594
9098052636
9098057763
9098063561
9098070336
9098076623
9098081811
9098087853
9098092675
9098098107
9098104333
9098110925
9098114587
9098122460
9098127770
9098133569
9098139672
9098145837
9098153222
9098159081
9098164513
9098170373
9098176232
9098181420
9098188439
9098196313
9098202355
9098208703
9098214013
9098220299
9098226342
9098234581
9098240990
9098246483
9098254052
9098259362
9098267113
9098273278
9098279808
9098288292
9098294335
9098300438
9098308312
9098315087
9098321862
9098327111
9098334496
9098340843
9098347374
9098353600
9098358910
9098366905
9098374779
9098385582
9098391869
9098396019
9098404686
9098411217
9098416771
9098424156
9098429161
9098437035
9098443443
9098450035
9098456383
9098462303
9098469871
9098477623
9098484032
9098490623
9098495628
9098502403
9098509361
9098515220
9098520836
9098527733
9098532188
9098539940
9098546470
9098552757
9098558921
9098564170
9098570762
9098577598
9098583641
9098589439
9098596519
9098604393
9098610008
9098613670
9098621971
9098628623
9098633201
9098638938
9098646324
9098652915
9098658042
9098664329
9098669334
9098675804
9098681053
9098688804
9098695762
9098702171
9098707664
9098714011
9098720542
9098727195
9098729575
9098738609
9098745078
9098752402
9098759544
9098764609
9098771018
9098777549
9098785056
9098791343
9098798789
9098804404
9098812034
9098816733
9098824546
9098828818
9098836631
9098842612
9098851767
9098857688
9098865012
9098871543
9098876792
9098883384
9098889975
9098897238
9098905173
9098909568
9098916892
9098921897
9098930503
9098938010
9098942893
9098949607
9098955527
9098961630
9098965964
9098972983
9098978415
9098984763
9098989645
9098996726
9099000021
9099007224
9099010825
9099018576
9099025595
9099030539
9099036765
9099041403
9099048910
9099055075
9099060568
9099065939
9099073630
9099077353
9099084311
9099089499
9099095541
9099101401
9099106283
9099113058
9099117209
9099124106
9099130758
9099136801
9099143515
9099150229
9099156088
9099160910
9099166281
9099172262
9099176718
9099182089
9099186850
9099194235
9099198996
9099204428
9099210714
9099216757
9099220968
9099227438
9099233541
9099238851
9099243612
9099249533
9099254659
9099260153
9099266073
9099271444
9099276815
9099283590
9099289633
9099293966
9099301046
9099306905
9099314291
9099320150
9099325948
9099329427
9099338338
9099343832
9099348409
9099356161
9099359579
9099367696
9099372823
9099378927
9099383932
9099390279
9099401327
9099407125
9099413717
9099422384
9099429586
9099436666
9099443258
9099450277
9099457479
9099464498
9099470540
9099475789
9099483968
9099490255
9099496602
9099502156
9099507161
9099515645
9099520589
9099527974
9099534322
9099542073
9099548421
9099554585
9099558248
9099566182
9099571248
9099577779
9099585408
9099592427
9099597371
9099603658
9099610005
9099614949
9099621480
9099629597
9099634663
9099640706
9099646809
9099652058
9099658162
9099663960
9099671406
9099677815
9099683064
9099692036
9099697774
9099704793
9099712422
9099718403
9099726155
9099732380
9099738606
9099744954
9099751240
9099757039
9099764973
9099769673
9099776692
9099782124
9099787495
9099794392
9099798359
9099805928
9099812702
9099819966
9099827290
9099832051
9099838825
9099843830
9099851521
9099858601
9099863728
9099871845
9099877033
9099884174
9099889057
9099896565
9099904804
9099912495
9099916889
9099925617
9099929768
9099937946
9099943378
9099951557
9099959247
9099967182
9099972675
9099979450
9099985432
9099992451
9099998920
9100006489
9100015217
9100019367
9100028095
9100034992
9100041462
9100048114
9100052997
9100061176
9100065693
9100071857
9100077777
9100084186
9100090290
9100096881
9100102130
9100109149
9100115131
9100122333
9100127399
9100133808
9100143451
9100149555
9100157062
9100163471
9100168414
9100175311
9100181171
9100188190
9100195819
9100202716
9100209247
9100213519
9100221759
9100228717
9100235797
9100242511
9100249896
9100255389
9100259540
9100265033
9100271380
9100276202
9100283587
9100288775
9100294086
9100300372
9100305987
9100311358
9100318133
9100323993
9100329120
9100334063
9100340106
9100345660
9100352496
9100360125
9100365435
9100370562
9100376117
9100381793
9100387591
9100393634
9100399127
9100404986
9100411639
9100417193
9100422747
9100428912
9100435259
9100441241
9100447039
9100452471
9100458819
9100464739
9100471941
9100477191
9100484820
9100491045
9100496905
9100502215
9100508318
9100518145
9100523272
9100529986
9100535784
9100542376
9100549578
9100557268
9100564043
9100569964
9100576739
9100583147
9100589861
9100594256
9100602434
9100609942
9100616411
9100621966
9100629290
9100635882
9100642412
9100648577
9100656511
9100664690
9100671282
9100678179
9100685015
9100691606
9100698198
9100703569
9100711443
9100718340
9100724565
9100729509
9100735491
9100741960
9100748979
9100757402
9100762773
9100769792
9100778948
9100785906
9100794389
9100799699
9100807451
9100813188
9100821062
9100826799
9100834245
9100840227
9100846269
9100854936
9100861345
9100867692
9100873613
9100878313
9100885576
9100893144
9100898820
9100904252
9100910722
9100918413
9100924638
9100928544
9100936174
9100943376
9100950456
9100956498
9100961076
9100968217
9100973832
9100982743
9100989152
9100995561
9101001359
9101008317
9101014237
9101019120
9101026383
9101032548
9101039750
9101045365
9101052567
9101056291
9101065202
9101070268
9101078935
9101086198
9101093949
9101100053
9101106461
9101115372
9101120683
9101127457
9101135880
9101143204
9101147538
9101156205
9101163651
9101170731
9101177689
9101183426
9101191056
9101196854
9101205155
9101210343
9101217606
9101222672
9101229508
9101235978
9101244034
9101247269
9101255143
9101261185
9101266861
9101272660
9101278275
9101285538
9101290482
9101297501
9101304520
9101310440
9101316422
9101322708
9101330826
9101334366
9101342117
9101348587
9101354935
9101361466
9101367996
9101374222
9101378922
9101384598
9101391556
9101397720
9101403519
9101407486
9101417068
9101422073
9101428299
9101434097
9101438797
9101445206
9101450333
9101456558
9101462295
9101467422
9101473038
9101479080
9101483047
9101490188
9101497452
9101502640
9101507705
9101512344
9101517593
9101523086
9101529678
9101535049
9101539566
9101545669
9101550674
9101556411
9101562820
9101567276
9101573806
9101578323
9101585159
9101590896
9101595169
9101601699
9101607925
9101613357
9101618118
9101624710
9101630020
9101635757
9101640701
9101648513
9101655227
9101662490
9101667983
9101674941
9101680984
9101686843
9101694289
9101701247
9101707717
9101713638
9101720412
9101725234
9101731582
9101737258
9101745681
9101752334
9101758681
9101765029
9101768935
9101777358
9101783706
9101790359
9101796889
9101804580
9101809829
9101814895
9101822524
9101829970
9101836318
9101842482
9101847243
9101854445
9101861281
9101867324
9101874160
9101882094
9101885817
9101893141
9101899245
9101905348
9101912123
9101917983
9101924574
9101931532
9101937026
9101944045
9101949599
9101956069
9101962538
9101966628
9101975111
9101981459
9101986342
9101993422
9101998122
9102001723
9102010390
9102016981
9102023024
9102031447
9102036940
9102043227
9102051161
9102056898
9102063856
9102070997
9102077345
9102082594
9102088515
9102095106
9102102675
9102108778
9102114454
9102122206
9102128920
9102135084
9102142347
9102148268
9102156019
9102161879
9102168043
9102174330
9102180433
9102186903
9102195143
9102200758
9102208082
9102214491
9102221754
9102228651
9102236463
9102241895
9102249708
9102257704
9102264784
9102271070
9102276258
9102282850
9102292310
9102299879
9102305433
9102314588
9102318983
9102327955
9102334608
9102341444
9102349988
9102355604
9102362928
9102367994
9102376722
9102382581
9102389478
9102396802
9102403882
9102409986
9102414136
9102421338
9102427564
9102433240
9102439649
9102447461
9102453748
9102459790
9102465100
9102470838
9102476880
9102481885
9102488843
9102494641
9102500989
9102507825
9102513867
9102520947
9102526563
9102533460
9102538220
9102545789
9102550610
9102557630
9102563794
9102570630
9102577344
9102583020
9102589917
9102593823
9102601941
9102608838
9102615430
9102622998
9102629224
9102633435
9102640454
9102644971
9102651562
9102657666
9102663220
9102669751
9102675427
9102682446
9102689099
9102694836
9102701367
9102706311
9102712964
9102717907
9102724011
9102730786
9102735974
9102742260
9102748486
9102754834
9102760144
9102766308
9102772168
9102779492
9102785900
9102790722
9102797863
9102803662
9102810681
9102817517
9102824291
9102830761
9102837719
9102844982
9102850292
9102857189
9102864391
9102870251
9102877636
9102882519
9102889111
9102895275
9102901623
9102907421
9102913341
9102919689
9102925976
9102931713
9102938244
9102943371
9102950085
9102956554
9102964001
9102970959
9102977184
9102984569
9102991405
9102999401
9103006298
9103012218
9103018261
9103024730
9103030529
9103037548
9103044139
9103048351
9103056041
9103059520
9103068248
9103074657
9103080883
9103089183
9103094738
9103102733
9103108898
9103115306
9103122020
9103128856
9103135875
9103141063
9103148876
9103155406
9103161693
9103168346
9103175853
9103183421
9103189342
9103195934
9103202342
9103208263
9103216991
9103221934
9103231395
9103238170
9103244578
9103250560
9103256602
9103265269
9103272166
9103277049
9103284068
9103291148
9103298228
9103304515
9103310679
9103317027
9103321788
9103329356
9103336985
9103343333
9103351023
9103356334
9103365245
9103371165
9103381053
9103388316
9103393565
9103400889
9103410288
9103416697
9103424143
9103431101
9103436900
9103445078
9103451914
9103461009
9103468760
9103475230
9103482249
9103489878
9103496531
9103500559
9103510508
9103517039
9103524119
9103531199
9103539683
9103545481
9103553477
9103561167
9103568430
9103573862
9103581858
9103588755
9103594248
9103599375
9103607493
9103614451
9103620188
9103625803
9103632212
9103639231
9103645945
9103652842
9103659433
9103665842
9103672007
9103676828
9103683725
9103690988
9103697397
9103703440
9103709848
9103715219
9103723398
9103729013
9103736032
9103740732
9103748789
9103753488
9103762582
9103768808
9103775156
9103781442
9103786630
9103793588
9103799448
9103804819
9103810312
9103815317
9103821847
9103827707
9103834482
9103837717
9103845407
9103851572
9103856759
9103862008
9103869333
9103874948
9103879281
9103886850
9103892831
9103898324
9103903695
9103910226
9103916086
9103922311
9103927682
9103933236
9103939889
9103945993
9103953500
9103958993
9103965097
9103971749
9103977304
9103982064
9103989633
9103996347
9104002572
9104008248
9104012948
9104020761
9104027108
9104033456
9104040963
9104047494
9104052377
9104058846
9104064767
9104070504
9104077096
9104083505
9104090035
9104095162
9104102120
9104107919
9104114266
9104119698
9104128609
9104133919
9104139962
9104145638
9104152962
9104159493
9104167000
9104174019
9104179635
9104186898
9104193001
9104199166
9104205513
9104212594
9104219735
9104225899
9104232308
9104238839
9104245003
9104252449
9104260384
9104267464
9104270943
9104279854
9104286202
9104292977
9104299507
9104307137
9104313118
9104318001
9104324959
9104330269
9104337166
9104345284
9104351875
9104359566
9104365547
9104373360
9104378059
9104385078
9104393257
9104400337
9104406929
9104412971
9104420235
9104423897
9104433235
9104440010
9104445747
9104452705
9104458198
9104465767
9104470100
9104478462
9104485908
9104492378
9104500313
9104505501
9104514534
9104518379
9104527290
9104534126
9104541084
9104549629
9104556099
9104562690
9104569221
9104574043
9104582588
9104589546
9104596443
9104602607
9104608772
9104615486
9104620002
9104628242
9104634528
9104642768
9104646674
9104655280
9104659370
9104668281
9104676093
9104684638
9104691962
9104697822
9104704536
9104709968
9104717841
9104724494
9104731940
9104738471
9104744391
9104752082
9104757575
9104765998
9104771247
9104776130
9104784491
9104790473
9104796454
9104802009
9104807807
9104812507
9104819648
9104826789
9104833136
9104838507
9104845588
9104851142
9104855597
9104861457
9104868293
9104874701
9104879889
9104885749
9104890814
9104897467
9104904975
9104909674
9104917487
9104922309
9104928900
9104934088
9104942267
9104947760
9104955634
9104963324
9104969489
9104975165
9104981512
9104986212
9104993536
9104999457
9105005377
9105010565
9105017218
9105023199
9105028509
9105034125
9105040350
9105046393
9105052252
9105056891
9105064581
9105071844
9105078741
9105085333
9105091253
9105098394
9105105047
9105110724
9105116400
9105122992
9105128729
9105134649
9105137823
9105146063
9105150763
9105157476
9105164007
9105170477
9105176397
9105180914
9105187933
9105193731
9105199957
9105206976
9105213201
9105218328
9105224554
9105230474
9105235784
9105241766
9105247381
9105253484
9105259527
9105265875
9105271551
9105279424
9105285650
9105292913
9105299810
9105305852
9105311285
9105318609
9105324407
9105330999
9105338384
9105344549
9105352544
9105358831
9105365240
9105372381
9105379033
9105388921
9105392705
9105399724
9105405767
9105412175
9105418401
9105425481
9105432378
9105437383
9105445501
9105451848
9105458013
9105464910
9105471562
9105477239
9105482427
9105491643
9105497991
9105505254
9105510320
9105516240
9105524785
9105531072
9105536992
9105542912
9105549321
9105557561
9105565434
9105572514
9105578679
9105584782
9105591435
9105598149
9105606328
9105613530
9105620854
9105627690
9105635136
9105640690
9105648442
9105654118
9105661198
9105668034
9105674260
9105681828
9105686833
9105694951
9105700505
9105708683
9105712346
9105720707
9105727971
9105732670
9105740300
9105747380
9105754460
9105761174
9105766789
9105774357
9105780461
9105786930
9105794316
9105803715
9105811100
9105817692
9105822270
9105832585
9105838749
9105847599
9105854801
9105861820
9105868717
9105875187
9105880375
9105886845
9105894413
9105902470
9105906437
9105914982
9105919620
9105926884
9105932926
9105938541
9105945194
9105951786
9105957157
9105962406
9105969974
9105974674
9105981449
9105988529
9105994144
9105999393
9106005741
9106011051
9106017398
9106023136
9106029239
9106036563
9106044193
9106048587
9106055973
9106061161
9106068546
9106073490
9106080142
9106087345
9106092777
9106097721
9106103702
9106109867
9106116947
9106122989
9106128665
9106134891
9106140689
9106146304
9106152225
9106159366
9106166324
9106171146
9106178958
9106185306
9106192203
9106198245
9106203860
9106211734
9106217654
9106224063
9106229617
9106236148
9106243289
9106249148
9106253604
9106260989
9106264285
9106270938
9106277957
9106283206
9106290774
9106296328
9106300723
9106307559
9106311831
9106317996
9106324588
9106330691
9106336245
9106342044
9106347537
9106352175
9106361331
9106367678
9106373904
9106379885
9106385317
9106392214
9106395693
9106403201
9106410525
9106415713
9106422976
9106427798
9106435122
9106441348
9106447329
9106454104
9106460696
9106466860
9106474917
9106481081
9106487002
9106494082
9106499758
9106506716
9106513247
9106520449
9106526552
9106532290
9106538943
9106546572
9106552309
9106559084
9106566713
9106572817
9106578005
9106584963
9106592287
9106597658
9106604921
9106610659
9106617495
9106624086
9106631838
9106639406
9106645937
9106652468
9106660097
9106665529
9106672548
9106680544
9106687563
9106691286
9106700807
9106706728
9106714662
9106721559
9106727419
9106735536
9106742616
9106749513
9106756410
9106761476
9106770204
9106776735
9106783388
9106787416
9106795778
9106803468
9106808290
9106815004
9106821657
9106829774
9106834840
9106843202
9106849611
9106856080
9106862184
9106869386
9106875551
9106880922
9106888978
9106895509
9106901735
9106907350
9106914552
9106920533
9106927552
9106934083
9106940675
9106946595
9106953858
9106961000
9106967897
9106973146
9106981629
9106987916
9106995423
9106999330
9107008424
9107016175
9107021302
9107028382
9107034913
9107039552
9107046937
9107053834
9107060792
9107067933
9107075196
9107081361
9107089539
9107098145
9107105225
9107111756
9107119691
