8993372728
8993377855
8993385241
8993390734
8993395311
8993400988
8993407213
8993412706
8993417101
8993423693
8993429918
8993436144
8993442186
8993447374
8993452135
8993459459
8993466112
8993472887
8993478990
8993483873
8993491869
8993498216
8993505052
8993510362
8993517992
8993523851
8993530382
8993539354
8993544237
8993552904
8993559495
8993566087
8993574632
8993583970
8993589952
8993596910
8993602769
8993612169
8993619188
8993626024
8993634813
8993647508
8993655442
8993664048
8993672410
8993681993
8993692247
8993700486
8993708055
8993714524
8993720201
8993726792
8993735704
8993741380
8993747605
8993754502
8993760484
8993768662
8993776780
8993785752
8993791123
8993799790
8993805589
8993815049
8993822617
8993827805
8993836350
8993844224
8993852341
8993858567
8993867783
8993873948
8993881638
8993887986
8993897568
8993904709
8993911545
8993917649
8993927048
8993931260
8993940232
8993947251
8993955674
8993963364
8993970505
8993976792
8993984238
8993991867
8993999070
8994006577
8994013901
8994020859
8994028244
8994034348
8994041733
8994050217
8994055710
8994066086
8994072434
8994081711
8994087936
8994096848
8994101181
8994110397
8994120224
8994125900
8994135117
8994141098
8994148666
8994157272
8994163559
8994174911
8994182907
8994190536
8994200546
8994208114
8994215256
8994222641
8994231247
8994236984
8994245529
8994252060
8994262436
8994270309
8994278244
8994285446
8994291854
8994301254
8994310104
8994319015
8994329147
8994339157
8994346908
8994356796
8994361740
8994372360
8994381332
8994389266
8994398116
8994404037
8994413131
8994419357
8994427230
8994435043
8994441878
8994448470
8994457870
8994462081
8994471236
8994475631
8994486251
8994494246
8994501937
8994508834
8994517074
8994524886
8994533004
8994539840
8994546309
8994554000
8994560897
8994571456
8994578902
8994586226
8994595137
8994602339
8994610945
8994619979
8994626815
8994635543
8994642867
8994650679
8994659834
8994668135
8994675276
8994683577
8994691145
8994700057
8994704268
8994713057
8994722762
8994729964
8994737837
8994745039
8994752364
8994760725
8994767195
8994776655
8994783003
8994790327
8994798872
8994805281
8994813337
8994820173
8994828779
8994835005
8994842085
8994849592
8994857893
8994867720
8994876142
8994884748
8994891035
8994899885
8994907820
8994912702
8994922163
8994931928
8994940351
8994947187
8994956037
8994964399
8994968916
8994978254
8994989607
8994998396
8995007002
8995017072
8995023115
8995031477
8995040327
8995052595
8995060590
8995068525
8995076520
8995082441
8995089460
8995097577
8995104596
8995110578
8995119062
8995125165
8995132917
8995138837
8995147321
8995153608
8995162580
8995166791
8995177045
8995181440
8995190778
8995198041
8995206037
8995214459
8995221479
8995229779
8995237042
8995244122
8995249616
8995257367
8995264325
8995273663
8995281293
8995288617
8995298200
8995305524
8995309796
8995319012
8995326520
8995333722
8995341107
8995348370
8995355694
8995363202
8995370587
8995378033
8995385602
8995392132
8995399884
8995406231
8995414044
8995420636
8995428814
8995436932
8995444622
8995451214
8995459271
8995466412
8995473431
8995480206
8995486554
8995494915
8995502423
8995508526
8995517376
8995523724
8995531903
8995536663
8995545574
8995552899
8995560650
8995569378
8995577007
8995584332
8995591473
8995598736
8995605328
8995612591
8995620586
8995628948
8995635967
8995643475
8995651226
8995661358
8995669414
8995675579
8995684429
8995690594
8995699871
8995708538
8995717754
8995729290
8995736492
8995749675
8995759136
8995768047
8995775981
8995783245
8995789470
8995795696
8995801982
8995808513
8995814861
8995821941
8995828533
8995834697
8995841289
8995847026
8995853618
8995859966
8995865886
8995872478
8995878459
8995884990
8995890788
8995897929
8995902751
8995910136
8995917644
8995923381
8995930217
8995936137
8995941447
8995948100
8995955058
8995960612
8995967631
8995974650
8995979838
8995986430
8995991862
8995999003
8996006083
8996012126
8996019572
8996025981
8996032023
8996038188
8996046000
8996051066
8996056804
8996065532
8996072184
8996078288
8996084635
8996090800
8996097209
8996103923
8996111735
8996118998
8996124919
8996131205
8996138835
8996145793
8996150981
8996157816
8996165141
8996173014
8996178935
8996186442
8996192179
8996199870
8996206400
8996212260
8996218241
8996226603
8996233439
8996240641
8996249674
8996255045
8996263224
8996270914
8996279581
8996287760
8996295084
8996301188
8996309000
8996315287
8996323588
8996331400
8996351664
8996358255
8996366556
8996370462
8996379557
8996391031
8996399698
8996406595
8996413309
8996421671
8996427347
8996434854
8996440836
8996448648
8996454324
8996460855
8996468546
8996474771
8996480142
8996487283
8996495035
8996501627
8996509256
8996520670
8996527200
8996534891
8996538980
8996548135
8996556680
8996563699
8996567911
8996576639
8996583658
8996590982
8996595254
8996603677
8996609414
8996616739
8996620279
8996628091
8996633889
8996640725
8996644265
8996653726
8996659463
8996665750
8996672280
8996678323
8996683328
8996689553
8996696145
8996702371
8996708230
8996714517
8996719705
8996725930
8996732766
8996738687
8996744302
8996750405
8996757485
8996764138
8996768899
8996775124
8996781045
8996787148
8996794228
8996799844
8996806008
8996812722
8996818642
8996823952
8996830422
8996837014
8996841897
8996847085
8996855569
8996860818
8996866189
8996872597
8996878396
8996883828
8996888589
8996895791
8996899209
8996906045
8996911599
8996917092
8996923623
8996930092
8996938759
8996942238
8996949990
8996956826
8996961525
8996968911
8996973488
8996980995
8996987038
8996992043
8996998940
8997004799
8997009682
8997017128
8997023903
8997030800
8997035500
8997042641
8997048378
8997054115
8997057594
8997066017
8997070473
8997078651
8997084267
8997090065
8997095619
8997101357
8997106544
8997112343
8997119789
8997124733
8997131691
8997136635
8997144264
8997149452
8997155861
8997163307
8997168800
8997174537
8997180397
8997186989
8997194496
8997202186
8997207741
8997214515
8997219459
8997226906
8997232155
8997240272
8997244117
8997252296
8997256141
8997264442
8997270423
8997277870
8997281593
8997288978
8997295143
8997301551
8997309364
8997315589
8997321998
8997328285
8997332740
8997340492
8997346717
8997353248
8997360206
8997366615
8997372535
8997378944
8997384742
8997391212
8997397376
8997403846
8997410682
8997417152
8997423316
8997429908
8997436805
8997441627
8997448951
8997455237
8997462012
8997466773
8997474219
8997478919
8997485572
8997492042
8997497962
8997505408
8997513221
8997517005
8997524756
8997532203
8997539038
8997545630
8997550086
8997558509
8997563941
8997572058
8997579444
8997586096
8997591407
8997596900
8997604407
8997611975
8997624549
8997633093
8997639563
8997644324
8997652258
8997658118
8997664587
8997670813
8997677283
8997684790
8997689734
8997697607
8997702368
8997709265
8997716101
8997722571
8997729773
8997735998
8997741492
8997749060
8997755163
8997763281
8997769324
8997774695
8997779944
8997787451
8997792822
8997800329
8997807165
8997813757
8997820166
8997827124
8997831152
8997840673
8997844580
8997852636
8997860144
8997866247
8997869970
8997877356
8997883642
8997889196
8997894323
8997899877
8997906225
8997912329
8997917944
8997923742
8997929601
8997933935
8997940344
8997946325
8997953466
8997957983
8997964880
8997969274
8997975805
8997981969
8997986669
8997993688
8998000707
8998005834
8998011755
8998016637
8998023046
8998027929
8998033849
8998039159
8998046117
8998050939
8998057348
8998062108
8998068700
8998073400
8998079625
8998085241
8998097326
8998106176
8998111730
8998118810
8998124547
8998132665
8998140355
8998146093
8998150914
8998158178
8998164647
8998169347
8998177831
8998185277
8998192174
8998196813
8998203282
8998209935
8998217992
8998223851
8998230321
8998238255
8998243016
8998250096
8998255895
8998261571
8998264989
8998272191
8998279210
8998284642
8998290379
8998296727
8998302159
8998306493
8998312779
8998319127
8998325352
8998331761
8998337376
8998342259
8998348546
8998355443
8998360203
8998367955
8998373753
8998377171
8998384800
8998390416
8998396153
8998402379
8998408116
8998414586
8998420506
8998426609
8998431553
8998439488
8998444432
8998451451
8998457981
8998465916
8998470616
8998477146
8998483982
8998489842
8998496678
8998502232
8998509495
8998514988
8998521824
8998527744
8998533055
8998540562
8998545811
8998553196
8998558445
8998565891
8998571140
8998578220
8998584629
8998592197
8998598301
8998604649
8998613071
8998619053
8998627048
8998632358
8998640171
8998645420
8998652927
8998660190
8998666538
8998673557
8998679905
8998685154
8998691623
8998698826
8998705417
8998711826
8998718174
8998723484
8998732212
8998739048
8998743991
8998750888
8998758457
8998765293
8998771518
8998780918
8998785190
8998794345
8998799716
8998808139
8998815158
8998822177
8998828342
8998842502
8998847080
8998855136
8998859897
8998867831
8998873080
8998879306
8998886081
8998892001
8998896762
8998903842
8998910861
8998917270
8998922641
8998930636
8998936008
8998943210
8998948459
8998954989
8998960910
8998968234
8998973361
8998980502
8998986422
8998993014
8998996921
8999004855
8999010409
8999018039
8999023959
8999030917
8999034640
8999042941
8999049533
8999057040
8999061373
8999070285
8999076205
8999083956
8999090304
8999096285
8999099887
8999107028
8999113009
8999120272
8999125277
8999131686
8999138400
8999144747
8999150668
8999157076
8999164156
8999170382
8999176791
8999182345
8999188509
8999192294
8999199801
8999207796
8999213717
8999219820
8999224520
8999230807
8999237154
8999242464
8999249789
8999255953
8999261385
8999267183
8999272982
8999279024
8999285616
8999292391
8999300203
8999304903
8999311739
8999318819
8999324678
8999330904
8999337435
8999342257
8999349215
8999353792
8999359224
8999363863
8999373323
8999379976
8999386324
8999394625
8999401155
8999406465
8999413667
8999420320
8999426363
8999432955
8999439974
8999446443
8999452730
8999457491
8999464388
8999469087
8999474947
8999479890
8999486726
8999491426
8999498872
8999504610
8999510103
8999516023
8999521699
8999526216
8999533479
8999538911
8999544710
8999551423
8999555818
8999563447
8999568574
8999575532
8999581453
8999587434
8999591523
8999599214
8999605500
8999611543
8999618318
8999624543
8999630220
8999636445
8999642121
8999646943
8999654084
8999659150
8999665071
8999669831
8999677095
8999682466
8999689912
8999695832
8999701692
8999710298
8999715180
8999722199
8999728486
8999737885
8999744172
8999750214
8999756562
8999763459
8999768098
8999774567
8999780915
8999787934
8999794404
8999801057
8999806123
8999812958
8999819184
8999825837
8999830598
8999837250
8999843537
8999850068
8999855012
8999863251
8999870148
8999875702
8999880768
8999887604
8999892731
8999900422
8999908539
8999914948
8999919953
8999926423
8999933014
8999939545
8999946015
8999952362
8999959870
8999966156
8999975739
8999983429
8999990509
8999996979
9000001801
9000008881
9000018891
9000028168
9000032379
9000041351
9000048065
9000054535
9000062347
9000068695
9000073700
9000079987
9000086945
9000093231
9000099518
9000106049
9000112152
9000118439
9000124115
9000130524
9000136749
9000143219
9000149750
9000156952
9000163543
9000168304
9000176178
9000180938
9000187774
9000194610
9000200775
9000207916
9000214019
9000219391
9000227386
9000232818
9000238800
9000245697
9000251678
9000257171
9000264312
9000269622
9000277801
9000283599
9000290435
9000298736
9000303924
9000309783
9000318878
9000322906
9000330901
9000337371
9000344268
9000347991
9000356231
9000363555
9000369598
9000374664
9000380462
9000386565
9000392486
9000398467
9000405547
9000410796
9000418120
9000423186
9000428008
9000434600
9000440215
9000447722
9000454558
9000460479
9000466155
9000470672
9000477874
9000482451
9000489592
9000496856
9000502654
9000508513
9000514800
9000521575
9000527251
9000533355
9000538054
9000544829
9000549956
9000556487
9000562590
9000567961
9000574431
9000580779
9000588530
9000593047
9000602202
9000608428
9000614592
9000619658
9000626738
9000632353
9000641325
9000647307
9000653288
9000659514
9000664397
9000670683
9000675322
9000682280
9000687041
9000693755
9000699126
9000704497
9000709380
9000716032
9000721403
9000728239
9000733794
9000739226
9000744841
9000750578
9000756132
9000761992
9000768278
9000774809
9000781096
9000787138
9000793913
9000798857
9000805327
9000810942
9000818083
9000824369
9000830229
9000833769
9000841520
9000848234
9000854155
9000860197
9000866056
9000872770
9000877287
9000885038
9000889982
9000897856
9000904997
9000911100
9000917936
9000923551
9000930509
9000936063
9000942960
9000948087
9000955106
9000961332
9000966703
9000973844
9000979215
9000986662
9000992094
9000998991
9001005521
9001011808
9001018400
9001024564
9001030912
9001036954
9001043363
9001050504
9001057218
9001062406
9001069852
9001075773
9001081876
9001087735
9001094205
9001102262
9001107023
9001113553
9001120328
9001125455
9001132108
9001139249
9001147794
9001154264
9001164456
9001172574
9001179288
9001184842
9001191251
9001202176
9001210599
9001217008
9001225064
9001230985
9001238431
9001244290
9001251798
9001257169
9001265103
9001268826
9001277371
9001283963
9001290433
9001296536
9001302579
9001309964
9001316678
9001323514
9001330411
9001335599
9001342618
9001349148
9001356167
9001362942
9001368374
9001374417
9001381192
9001387051
9001392422
9001400479
9001405789
9001413174
9001419339
9001426114
9001429898
9001437893
9001443447
9001451077
9001457180
9001463589
9001469815
9001476162
9001482449
9001489346
9001497524
9001504666
9001510464
9001517483
9001524624
9001531704
9001538601
9001543728
9001551052
9001557095
9001563015
9001568813
9001574245
9001580227
9001586208
9001593166
9001599392
9001604641
9001612026
9001615566
9001623379
9001629665
9001635769
9001641994
9001647976
9001653957
9001660244
9001666408
9001671352
9001678737
9001686733
9001692470
9001699123
9001704921
9001710903
9001717189
9001722744
9001729396
9001734768
9001739772
9001747524
9001753383
9001759304
9001766078
9001772975
9001782436
9001789028
9001794643
9001799953
9001806362
9001813442
9001818202
9001829494
9001835475
9001841274
9001847865
9001852687
9001858363
9001863307
9001870937
9001874232
9001881618
9001887660
9001893214
9001899257
9001904811
9001911586
9001915797
9001922389
9001928554
9001933436
9001939601
9001945582
9001950465
9001956996
9001961635
9001968837
9001973475
9001979518
9001984462
9001991542
9001999171
9002004847
9002010646
9002016444
9002023951
9002028346
9002035060
9002041407
9002047816
9002053126
9002060023
9002063563
9002071314
9002078089
9002084132
9002091151
9002097499
9002103541
9002110682
9002116847
9002123866
9002129664
9002136866
9002142481
9002147791
9002154932
9002160426
9002167933
9002173304
9002180872
9002188380
9002194849
9002201563
9002208155
9002215113
9002219813
9002226649
9002233546
9002240198
9002245753
9002253321
9002258448
9002265101
9002270960
9002277125
9002285608
9002291834
9002297693
9002304346
9002309778
9002316980
9002323450
9002329676
9002337244
9002343958
9002349329
9002356043
9002363794
9002370386
9002378382
9002387415
9002395288
9002402918
9002408289
9002416834
9002423853
9002430383
9002435877
9002443384
9002450220
9002455042
9002462915
9002467920
9002476221
9002481714
9002490076
9002496118
9002503076
9002506799
9002514917
9002520227
9002528100
9002532007
9002540368
9002546899
9002553247
9002560083
9002566430
9002570886
9002580041
9002586023
9002592431
9002599084
9002603967
9002611963
9002616845
9002624231
9002628991
9002637170
9002641931
9002649194
9002653955
9002660913
9002667810
9002674645
9002679467
9002687585
9002692346
9002700402
9002705163
9002712914
9002718224
9002725121
9002732751
9002739892
9002745080
9002753320
9002758691
9002765405
9002771996
9002778649
9002785912
9002791894
9002798608
9002803551
9002810265
9002816003
9002822777
9002828881
9002834069
9002841210
9002846337
9002852746
9002857873
9002865441
9002870751
9002877831
9002883141
9002889306
9002894310
9002902062
9002908715
9002914818
9002918602
9002927575
9002931176
9002940148
9002945641
9002951866
9002957726
9002963829
9002970726
9002977501
9002985741
9002991234
9002999352
9003003990
9003011437
9003018517
9003024620
9003030907
9003037987
9003044762
9003051170
9003057030
9003062645
9003068321
9003074120
9003080955
9003085045
9003091759
9003097740
9003102867
9003109032
9003114952
9003119835
9003125877
9003130577
9003137779
9003142418
9003148399
9003153160
9003160179
9003163719
9003172020
9003177879
9003184837
9003190818
9003196739
9003203025
9003209007
9003220237
9003223899
9003232261
9003238670
9003245933
9003251792
9003258018
9003265037
9003270774
9003277000
9003282920
9003288597
9003295066
9003301536
9003308677
9003314475
9003320640
9003326255
9003332176
9003336021
9003344505
9003350730
9003357139
9003363548
9003370261
9003377463
9003382224
9003389548
9003396628
9003403281
9003410117
9003415610
9003420981
9003428184
9003433494
9003440696
9003446555
9003454246
9003459556
9003467612
9003473716
9003480063
9003486594
9003492942
9003499595
9003506003
9003509726
9003517234
9003524131
9003530844
9003537558
9003544089
9003550681
9003557151
9003565024
9003570517
9003578513
9003583945
9003591879
9003601218
9003606406
9003612143
9003620200
9003633627
9003640768
9003647177
9003655356
9003661703
9003668234
9003672995
9003680807
9003685751
9003692465
9003699118
9003705954
9003712302
9003718527
9003725119
9003731344
9003737875
9003743979
9003750509
9003758139
9003763083
9003770529
9003777548
9003783651
9003788595
9003795675
9003803122
9003809591
9003816610
9003822226
9003829122
9003834188
9003841268
9003847433
9003854513
9003861044
9003866354
9003874533
9003880575
9003886984
9003894125
9003900656
9003907369
9003913717
9003918966
9003925314
9003932577
9003938985
9003945882
9003950887
9003958944
9003964254
9003970907
9003978109
9003985311
9003992391
9003999288
9004006368
9004013326
9004020284
9004026754
9004032125
9004036458
9004045675
9004052022
9004058187
9004064534
9004070943
9004077230
9004082174
9004088643
9004094991
9004100850
9004107564
9004113546
9004119710
9004126058
9004132100
9004137044
9004143636
9004148824
9004156758
9004162862
9004168599
9004175435
9004179891
9004187398
9004192952
9004200520
9004209126
9004216512
9004222432
9004228047
9004233724
9004242085
9004250996
9004257222
9004264912
9004269246
9004275838
9004282246
9004287862
9004292500
9004298787
9004305501
9004311421
9004316609
9004322163
9004327901
9004334859
9004339802
9004345357
9004351399
9004357441
9004364094
9004368306
9004375630
9004380391
9004387654
9004392964
9004399189
9004405171
9004410786
9004416218
9004421894
9004429585
9004435993
9004443257
9004448506
9004454975
9004459736
9004466389
9004476521
9004482868
9004490071
9004496479
9004501911
9004508198
9004513203
9004520222
9004525471
9004530476
9004537434
9004542194
9004549152
9004555195
9004561054
9004567158
9004572834
9004579731
9004585468
9004590412
9004596821
9004603718
9004610187
9004616596
9004623005
9004629169
9004635578
9004641315
9004648029
9004655597
9004663227
9004669880
9004675251
9004682270
9004687702
9004694294
9004701191
9004707050
9004712421
9004720356
9004725605
9004731891
9004737384
9004744525
9004750202
9004757770
9004765277
9004771625
9004779987
9004788104
9004794513
9004802387
9004808978
9004814472
9004826984
9004834552
9004840350
9004849994
9004854449
9004862933
9004868793
9004875507
9004880878
9004888934
9004892963
9004901324
9004907489
9004914447
9004922137
9004928424
9004935809
9004942157
9004948138
9004954547
9004959613
9004966205
9004973285
9004979693
9004986102
9004992511
9004999224
9005005572
9005012652
9005017413
9005024676
9005031146
9005037493
9005044573
9005050311
9005057391
9005063372
9005070452
9005077227
9005082659
9005088580
9005095721
9005101885
9005109332
9005115496
9005123736
9005129839
9005137469
9005144122
9005150713
9005157061
9005160845
9005168413
9005177691
9005184161
9005186480
9005196123
9005201983
9005208391
9005215777
9005220598
9005228960
9005235979
9005242327
9005247820
9005255022
9005262468
9005269304
9005276934
9005283403
9005289934
9005296404
9005300615
9005307817
9005312273
9005318376
9005322588
9005329973
9005336504
9005341570
9005347734
9005353716
9005358538
9005364153
9005370561
9005376909
9005381975
9005387956
9005392534
9005398760
9005403581
9005411272
9005419817
9005426653
9005433366
9005439226
9005445146
9005450029
9005458147
9005463213
9005471513
9005480058
9005485795
9005490739
9005496721
9005499773
9005506425
9005513444
9005519243
9005524003
9005529191
9005535234
9005539140
9005544938
9005551164
9005557451
9005562455
9005569536
9005574540
9005580583
9005584123
9005590593
9005597734
9005602189
9005608781
9005612992
9005620134
9005625322
9005632096
9005638383
9005643510
9005649736
9005655656
9005662126
9005667069
9005672990
9005678361
9005685502
9005690934
9005696549
9005702897
9005708878
9005714860
9005723649
9005728715
9005736832
9005743119
9005747758
9005754472
9005761552
9005767167
9005773698
9005777177
9005785172
9005790909
9005796891
9005802689
9005810258
9005815873
9005821793
9005827347
9005834061
9005841324
9005847550
9005854874
9005860795
9005866349
9005869767
9005877640
9005886185
9005891068
9005898087
9005903885
9005909867
9005915848
9005922318
9005928849
9005934464
9005944229
9005953140
9005959061
9005967240
9005975846
9005981888
9005992508
9005998551
9006006302
9006015457
9006022476
9006028397
9006033646
9006040848
9006046036
9006054337
9006060379
9006066666
9006072830
9006080215
9006086197
9006092056
9006097305
9006105667
9006109329
9006116836
9006122268
9006130020
9006136917
9006141678
9006147659
9006155105
9006158828
9006167129
9006174759
9006181228
9006185196
9006193985
9006197830
9006206680
9006213760
9006220352
9006225967
9006232254
9006237930
9006244338
9006251846
9006256668
9006263381
9006269851
9006277175
9006283584
9006290420
9006295303
9006302261
9006308608
9006314163
9006320571
9006327529
9006332351
9006339980
9006346877
9006352798
9006357742
9006364699
9006371902
9006380324
9006385696
9006392898
9006399734
9006405959
9006412978
9006419143
9006426345
9006436843
9006441237
9006450026
9006456618
9006463820
9006470656
9006477126
9006484084
9006490004
9006496535
9006501845
9006508498
9006515029
9006520827
9006527785
9006533889
9006539015
9006546279
9006551406
9006557143
9006562087
9006569716
9006576918
9006583998
9006591811
9006598525
9006604628
9006609999
9006616713
9006625197
9006631850
9006637953
9006645522
9006650893
9006657729
9006662550
9006669813
9006676039
9006683546
9006687147
9006694655
9006700514
9006706129
9006710036
9006716749
9006723829
9006728102
9006733961
9006739576
9006746657
9006750990
9006757765
9006763929
9006770216
9006775465
9006781263
9006787428
9006793165
9006798658
9006804396
9006811781
9006817457
9006823561
9006827955
9006835279
9006839491
9006846205
9006852674
9006857496
9006863539
9006869337
9006874098
9006880445
9006885267
9006891737
9006896558
9006904127
9006907423
9006914808
9006918287
9006927625
9006933179
9006938978
9006944471
9006950330
9006956190
9006962049
9006967603
9006973463
9006980543
9006984998
9006993360
9006999036
9007005262
9007011182
9007017103
9007023206
9007029493
9007038160
9007043042
9007050855
9007056043
9007063428
9007068555
9007075940
9007083326
9007089856
9007096753
9007103711
9007109204
9007116468
9007122388
9007128064
9007135938
9007141370
9007148877
9007154431
9007163587
9007170667
9007177258
9007181043
9007190442
9007197583
9007204724
9007210461
9007217542
9007225659
9007230725
9007237744
9007244275
9007250989
9007260388
9007268689
9007274060
9007282239
9007289563
9007295849
9007302502
9007308789
9007315869
9007320752
9007328320
9007335461
9007343091
9007347912
9007354931
9007361828
9007368115
9007373364
9007379773
9007386853
9007392041
9007398877
9007406201
9007409863
9007417309
9007422436
9007429150
9007434765
9007442394
9007448681
9007454540
9007458019
9007465710
9007471691
9007477612
9007485912
9007490856
9007497082
9007502941
9007508740
9007515026
9007520519
9007527355
9007533520
9007539013
9007545361
9007551952
9007557262
9007564464
9007570202
9007577221
9007584118
9007587963
9007595287
9007600780
9007607677
9007613354
9007619762
9007626720
9007634960
9007641674
9007646923
9007654796
9007659862
9007666637
9007674083
9007680614
9007686046
9007693981
9007698925
9007705333
9007711559
9007718517
9007723094
9007730724
9007736278
9007742504
9007748607
9007754100
9007758861
9007765392
9007770824
9007779186
9007787792
9007794139
9007800365
9007811046
9007819713
9007826427
9007833995
9007840099
9007847484
9007852122
9007859203
9007866466
9007872325
9007878490
9007884105
9007890208
9007895885
9007900279
9007906077
9007912791
9007919505
9007924144
9007929820
9007935191
9007940867
9007945811
9007950389
9007956614
9007961619
9007967906
9007973033
9007978709
9007984507
9007989756
9007997508
9008001780
9008007762
9008013438
9008018565
9008022410
9008029246
9008034373
9008040721
9008044932
9008053233
9008058543
9008064646
9008069712
9008074717
9008081736
9008086375
9008094798
9008099986
9008106638
9008113718
9008119090
9008126109
9008132395
9008137888
9008145518
9008151499
9008158091
9008164194
9008170298
9008175547
9008182017
9008187510
9008194346
9008201426
9008207834
9008213450
9008218027
9008226084
9008232004
9008238779
9008245554
9008252268
9008259287
9008265390
9008270762
9008276438
9008282969
9008292917
9008301340
9008306650
9008314463
9008322214
9008328867
9008335031
9008341074
9008350473
9008356638
9008365244
9008374521
9008380380
9008389047
9008393869
9008400766
9008407663
9008413705
9008420602
9008427499
9008433481
9008441293
9008446786
9008454294
9008460275
9008467111
9008472665
9008480783
9008486947
9008491952
9008499277
9008505868
9008512399
9008518808
9008523324
9008530893
9008537545
9008544076
9008551950
9008556833
9008564035
9008570565
9008577890
9008585092
9008590768
9008597604
9008603524
9008608956
9008616586
9008622018
9008629403
9008635751
9008642709
9008648934
9008655221
9008662057
9008668588
9008675363
9008680123
9008687081
9008693490
9008700509
9008707467
9008713448
9008720406
9008726022
9008733224
9008739693
9008746773
9008752084
9008759042
9008765267
9008772286
9008778512
9008784554
9008793648
9008799874
9008806588
9008811654
9008820504
9008826973
9008833565
9008841012
9008848580
9008855416
9008862984
9008869942
9008877205
9008883858
9008890694
9008902840
9008910652
9008917000
9008923226
9008931404
9008937935
9008944222
9008955147
9008958748
9008967781
9008974495
9008980660
9008985237
9008994026
9009006416
9009013130
9009018440
9009025459
9009031685
9009037605
9009042305
9009049934
9009056221
9009062569
9009069404
9009074470
9009080513
9009087349
9009094185
9009100654
9009105781
9009111824
9009118477
9009125068
9009130684
9009136787
9009142524
9009149421
9009154060
9009160652
9009166084
9009171821
9009177864
9009183662
9009189766
9009195137
9009201240
9009207466
9009212959
9009219612
9009225227
9009231330
9009237068
9009242866
9009248420
9009254157
9009259651
9009265632
9009271308
9009278816
9009283637
9009290046
9009296821
9009302558
9009308295
9009313850
9009320502
9009326179
9009332038
9009337653
9009343513
9009348945
9009354743
9009360786
9009365974
9009372504
9009378608
9009383369
9009390327
9009395148
9009402106
9009407233
9009414252
9009419806
9009426703
9009432929
9009438666
9009444648
9009448920
9009456427
9009463019
9009467902
9009473822
9009479010
9009485907
9009491889
9009497748
9009505805
9009510993
9009518439
9009522101
9009532294
9009538519
9009545111
9009551032
9009557257
9009565009
9009572150
9009578619
9009584174
9009592291
9009598883
9009606329
9009612433
9009618597
9009624518
9009630377
9009637274
9009642523
9009650763
9009654486
9009661566
9009666632
9009674078
9009679144
9009685370
9009690741
9009698553
9009705755
9009711798
9009716498
9009722479
9009728949
9009735113
9009743292
9009748297
9009755560
9009760138
9009767035
9009773504
9009778509
9009785894
9009793463
9009798834
9009805792
9009810736
9009817144
9009822027
9009831976
9009840765
9009845587
9009853460
9009858648
9009864691
9009871099
9009876653
9009882208
9009890386
9009896185
9009902105
9009907720
9009913885
9009917486
9009925970
9009934759
9009941045
9009947515
9009953619
9009959417
9009965459
9009971624
9009976263
9009984441
9009991155
9009996404
9010003545
9010009282
9010013799
9010021306
9010026799
9010034490
9010039800
9010046819
9010052190
9010060369
9010067083
9010073247
9010080449
9010088262
9010094548
9010103093
9010109136
9010116216
9010122136
9010129766
9010136174
9010145024
9010151555
9010159917
9010166142
9010172917
9010178349
9010185918
9010192448
9010200200
9010204717
9010214421
9010218144
9010224736
9010230046
9010236821
9010243352
9010249516
9010255803
9010262211
9010268498
9010272954
9010279301
9010286076
9010292729
9010297734
9010304448
9010309147
9010314885
9010320988
9010326420
9010332402
9010339604
9010344670
9010351384
9010356816
9010362431
9010367924
9010373661
9010380864
9010386540
9010393315
9010397282
9010404240
9010408757
9010414433
9010419132
9010426213
9010432621
9010437809
9010443363
9010448673
9010454594
9010462711
9010469364
9010475468
9010481571
9010484867
9010492558
9010497501
9010502811
9010510319
9010516544
9010521671
9010527286
9010531925
9010537601
9010542423
9010547001
9010554691
9010560490
9010564396
9010569645
9010575321
9010581852
9010587589
9010593937
9010600406
9010605228
9010611210
9010617435
9010622013
9010628421
9010634464
9010640690
9010646793
9010653385
9010660648
9010665897
9010674381
9010678104
9010687076
9010693729
9010700748
9010706790
9010714786
9010722171
9010728275
9010736209
9010742618
9010749149
9010757144
9010764407
9010770938
9010776614
9010784061
9010791690
9010797733
9010803531
9010809512
9010815677
9010821658
9010829654
9010835818
9010840884
9010846866
9010853335
9010859317
9010865542
9010870303
9010877261
9010884097
9010889529
9010893985
9010900210
9010906619
9010912112
9010919436
9010925418
9010930911
9010938052
9010943118
9010950320
9010955264
9010960818
9010966677
9010973941
9010979129
9010986758
9010990176
9010997439
9011002322
9011009402
9011016970
9011021914
9011028323
9011034304
9011040713
9011046633
9011051394
9011057314
9011065432
9011070010
9011076357
9011082217
9011088137
9011093996
9011099123
9011105471
9011112185
9011119143
9011124392
9011130740
9011135866
9011142153
9011147768
9011154970
9011160952
9011166323
9011173586
9011178591
9011185488
9011190432
9011198244
9011205263
9011211306
9011217775
9011224917
9011231020
9011237795
9011243715
9011249453
9011257387
9011263857
9011271181
9011277895
9011282717
9011288088
9011295961
9011304201
9011310427
9011318422
9011326113
9011332277
9011339113
9011346071
9011354433
9011361574
9011367433
9011375856
9011383913
9011390993
9011395021
9011402589
9011410524
9011416078
9011423219
9011428529
9011435426
9011444337
9011450319
9011456850
9011462465
9011468324
9011474245
9011479494
9011485536
9011490419
9011497316
9011504396
9011510194
9011514955
9011519777
9011526552
9011531373
9011538209
9011543458
9011550904
9011557313
9011563661
9011570375
9011576783
9011583436
9011588624
9011595521
9011600709
9011607240
9011611695
9011617860
9011622071
9011628541
9011635377
9011640931
9011645814
9011651246
9011656617
9011661866
9011667787
9011674317
9011679810
9011684632
9011690858
9011695802
9011701295
9011706605
9011711854
9011719422
9011724793
9011729920
9011733765
9011739381
9011744691
9011750123
9011755555
9011763306
9011768067
9011773133
9011777405
9011784424
9011787537
9011796998
9011803101
9011809449
9011814576
9011820374
9011826233
9011830811
9011837342
9011844788
9011850220
9011856568
9011862366
9011869385
9011877259
9011885498
9011893250
9011900940
9011906983
9011914856
9011921875
9011928955
9011935303
9011941712
9011948914
9011954285
9011963318
9011970398
9011975952
9011984131
9011989380
9011996765
9012001892
9012009644
9012016724
9012024353
9012030579
9012036316
9012044556
9012050842
9012057068
9012064453
9012071350
9012078674
9012085449
9012092041
9012098022
9012102966
9012110840
9012118713
9012123413
9012131225
9012139099
9012145080
9012152465
9012161254
9012166503
9012173034
9012178894
9012186584
9012192199
9012200744
9012208374
9012213256
9012220642
9012228454
9012234802
9012241210
9012248596
9012254516
9012261108
9012267577
9012273620
9012278808
9012287231
9012294372
9012301269
9012307311
9012312560
9012321960
9012328551
9012333373
9012340942
9012346435
9012353149
9012359801
9012366271
9012373046
9012379699
9012386046
9012392638
9012400023
9012406432
9012412291
9012422057
9012432372
9012440062
9012448973
9012456420
9012463683
9012467833
9012477721
9012482360
9012493163
9012506957
9012510863
9012520140
9012526671
9012533202
9012539427
9012545409
9012551329
9012557555
9012564147
9012568785
9012577086
9012582030
9012589415
9012594237
9012601012
9012607787
9012614317
9012619566
9012627074
9012633055
9012640501
9012645933
9012653807
9012660460
9012666685
9012672545
9012678709
9012684996
9012691099
9012695433
9012702757
9012708677
9012714842
9012721739
9012728148
9012734617
9012741026
9012747435
9012753782
9012760191
9012766417
9012772703
9012777342
9012785337
9012790098
9012796385
9012801939
9012808103
9012814085
9012819029
9012825193
9012831785
9012836546
9012842466
9012847044
9012854246
9012857542
9012865049
9012868894
9012877500
9012883909
9012889524
9012894468
9012900083
9012905210
9012912412
9012918455
9012924619
9012929624
9012935850
9012941160
9012947141
9012952390
9012958677
9012965269
9012971128
9012976682
9012979917
9012988096
9012993284
9012999936
9013006894
9013013242
9013019346
9013024289
9013030332
9013037717
9013044004
9013049802
9013057431
9013062925
9013069699
9013076474
9013083127
9013090085
9013096799
9013104184
9013108640
9013115232
9013121640
9013128720
9013134213
9013141232
9013147031
9013154782
9013160336
9013167294
9013172849
9013180173
9013185666
9013193845
9013200742
9013206784
9013210507
9013219174
9013225827
9013232358
9013239011
9013245663
9013252072
9013258603
9013265317
9013271847
9013278500
9013285092
9013291745
9013298947
9013304806
9013311825
9013317746
9013322567
9013330014
9013336972
9013342770
9013349972
9013355770
9013362728
9013368100
9013375180
9013381405
9013388363
9013394894
9013400997
9013409054
9013414425
9013422360
9013428951
9013435055
9013438778
9013447262
9013454891
9013461483
9013467831
9013473934
9013480343
9013485104
9013493038
9013498653
9013506466
9013511898
9013518795
9013524898
9013530880
9013537289
9013543453
9013550350
9013556698
9013563656
9013569881
9013575863
9013582515
9013589596
9013595821
9013603267
9013609432
9013615596
9013622188
9013628353
9013634151
9013638973
9013649593
9013656673
9013665035
9013672176
9013678829
9013684810
9013694759
9013701534
9013710872
9013718990
9013726253
9013730281
9013740230
9013744685
9013751582
9013758724
9013765071
9013772884
9013777644
9013785701
9013790706
9013799251
9013805110
9013810786
9013817622
9013823543
9013830379
9013836360
9013841731
9013849544
9013855769
9013863338
9013868526
9013875117
9013880366
9013886714
9013891841
9013899836
9013905818
9013911860
9013917781
9013923457
9013928706
9013936152
9013941401
9013949580
9013956538
9013962336
9013965815
9013974543
9013981257
9013987483
9013992915
9013999140
9014005488
9014011714
9014017817
9014022517
9014030268
9014034846
9014041926
9014046626
9014053767
9014060481
9014066035
9014070368
9014077570
9014082453
9014088557
9014093745
9014101313
9014107416
9014112788
9014117976
9014123530
9014130305
9014135187
9014142329
9014148859
9014154352
9014160334
9014166071
9014171503
9014177118
9014184870
9014189386
9014195429
9014199640
9014205988
9014210444
9014217524
9014223566
9014228876
9014235224
9014241205
9014249140
9014253107
9014262567
9014269037
9014274713
9014281366
9014301508
9014307794
9014312921
9014321161
9014327142
9014333124
9014339899
9014346369
9014352594
9014357660
9014365595
9014371637
9014377252
9014384210
9014388727
9014395074
9014402582
9014408746
9014414239
9014421381
9014426446
9014432733
9014437799
9014444574
9014450006
9014457818
9014463861
9014470453
9014473993
9014481744
9014487481
9014493585
9014500726
9014506830
9014511956
9014517938
9014524347
9014530877
9014536920
9014543267
9014549981
9014554681
9014561090
9014567071
9014573785
9014578363
9014584771
9014591058
9014598687
9014605401
9014611260
9014616143
9014622064
9014628472
9014634698
9014640252
9014647332
9014652520
9014658074
9014663018
9014669732
9014674920
9014682671
9014688653
9014695123
9014700249
9014707635
9014713860
9014719720
9014723931
9014730584
9014738640
9014743340
9014749505
9014755547
9014761468
9014767266
9014773675
9014780633
9014786614
9014792107
9014799248
9014804253
9014811211
9014816094
9014821770
9014827202
9014834954
9014840630
9014848503
9014854546
9014860649
9014864067
9014871758
9014881279
9014888115
9014895317
9014901482
9014908989
9014916069
9014921440
9014928093
9014936150
9014941948
9014947929
9014953117
9014959221
9014965813
9014972099
9014980095
9014985771
9014992729
9014997978
9015004997
9015009636
9015016411
9015022148
9015028313
9015034538
9015040275
9015046928
9015052543
9015057548
9015063774
9015071831
9015076347
9015083183
9015087455
9015093803
9015099907
9015104362
9015111442
9015117973
9015123283
9015129692
9015134636
9015140800
9015145439
9015152397
9015159355
9015165214
9015171318
9015177299
9015183525
9015189262
9015196342
9015200736
9015208549
9015213310
9015219413
9015225578
9015231315
9015235526
9015243034
9015247794
9015254142
9015260246
9015266959
9015270622
9015276725
9015283256
9015287345
9015294303
9015300285
9015304862
9015310477
9015315787
9015320609
9015327872
9015335258
9015340873
9015347281
9015353629
9015360526
9015366019
9015371879
9015377128
9015384635
9015389090
9015394217
9015399466
9015406363
9015415458
9015422416
9015426932
9015435233
9015442679
9015448111
9015456412
9015463553
9015469901
9015476981
9015483267
9015489310
9015494132
9015500968
9015508597
9015514517
9015520072
9015525870
9015531058
9015536856
9015543021
9015548880
9015555106
9015561087
9015567618
9015574515
9015581168
9015585867
9015592581
9015599722
9015605948
9015612784
9015618582
9015625540
9015631521
9015638357
9015644766
9015650931
9015658133
9015661123
9015670889
9015676077
9015683523
9015689810
9015695486
9015700979
9015708975
9015712820
9015721060
9015726614
9015734976
9015739065
9015746695
9015755423
9015761709
9015768545
9015773550
9015780447
9015787100
9015795278
9015800100
9015808279
9015813772
9015820913
9015826223
9015833303
9015839590
9015845754
9015853201
9015857961
9015864797
9015870962
9015877004
9015883840
9015890005
9015895620
9015904470
9015908132
9015916189
9015922292
9015928579
9015935232
9015942007
9015950979
9015957143
9015962819
9015968496
9015977163
9015983510
9015990041
9015996877
9016004201
9016010305
9016017446
9016023061
9016029836
9016036245
9016042165
9016050832
9016057973
9016064931
9016072255
9016078603
9016083669
9016089711
9016097524
9016104299
9016110463
9016117055
9016123097
9016127797
9016134023
9016140859
9016147694
9016154775
9016160817
9016165639
9016173085
9016178151
9016183705
9016189015
9016198170
9016202321
9016210683
9016216969
9016222401
9016227711
9016235097
9016241933
9016251698
9016256276
9016264088
9016267811
9016275746
9016281361
9016288868
9016295582
9016301197
9016307362
9016313466
9016319691
9016324269
9016331288
9016338612
9016344349
9016350453
9016357045
9016362660
9016367115
9016373402
9016379933
9016386219
9016391163
9016397145
9016403370
9016408741
9016413502
9016419850
9016425404
9016432972
9016438770
9016444813
9016450916
9016456654
9016462147
9016467823
9016474781
9016480030
9016486317
9016492176
9016497486
9016502491
9016509876
9016516285
9016521412
9016527271
9016532764
9016538624
9016544422
9016550709
9016558216
9016563526
9016569690
9016576282
9016583423
9016595386
9016604602
9016610706
9016617115
9016625049
9016631153
9016637806
9016644947
9016650745
9016656055
9016662708
9016667469
9016674732
9016679553
9016686939
9016690601
9016697376
9016702991
9016708545
9016714221
9016721423
9016727771
9016734180
9016739917
9016744373
9016750842
9016755481
9016762744
9016769641
9016775134
9016781116
9016786670
9016792834
9016798206
9016802905
9016809192
9016817554
9016822497
9016828662
9016835193
9016840991
9016845569
9016853259
9016860644
9016867724
9016873034
9016879199
9016884204
9016890490
9016895434
9016902514
9016907763
9016915149
9016921069
9016927722
9016933398
9016939318
9016944995
9016950976
9016958239
9016962817
9016968859
9016974719
9016978137
9016986315
9016993029
9016999438
9017006579
9017011462
9017017504
9017023547
9017029833
9017036242
9017042162
9017046923
9017056017
9017061205
9017067370
9017072314
9017079516
9017084460
9017090685
9017095995
9017103197
9017108568
9017115771
9017121508
9017129870
9017137682
9017143725
9017149645
9017156298
9017163256
9017170641
9017176928
9017183519
9017188830
9017196825
9017203783
9017210375
9017216845
9017226793
9017232714
9017240221
9017245897
9017254198
9017260973
9017266893
9017274095
9017280748
9017287218
9017292467
9017299730
9017306688
9017312547
9017318712
9017324632
9017329210
9017335985
9017343919
9017350328
9017355760
9017362047
9017367418
9017373460
9017380052
9017384569
9017392503
9017399522
9017405687
9017410753
9017418321
9017423814
9017429857
9017434923
9017444078
9017449083
9017456102
9017461473
9017467515
9017470750
9017478135
9017484361
9017490648
9017497239
9017503404
9017509629
9017515977
9017523179
9017529893
9017535325
9017540391
9017547288
9017552232
9017558213
9017563035
9017569444
9017575486
9017584703
9017590440
9017596055
9017599351
9017606370
9017612046
9017617906
9017625291
9017630052
9017636887
9017641343
9017647691
9017653306
9017658738
9017664536
9017671799
9017678147
9017682542
9017688279
9017692979
9017698716
9017703782
9017710435
9017716538
9017721909
9017727158
9017732529
9017737839
9017745041
9017751328
9017758957
9017765061
9017771164
9017776902
9017782822
9017791123
9017798691
9017806504
9017812058
9017817307
9017824021
9017828415
9017835678
9017841904
9017847275
9017853257
9017858506
9017863999
9017869492
9017874741
9017880539
9017887741
9017892868
9017899460
9017904038
9017910507
9017915024
9017921799
9017927414
9017934433
9017939011
9017944443
9017949936
9017955368
9017961777
9017968552
9017975143
9017980392
9017986984
9017991989
9017998581
9018003708
9018010483
9018019028
9018024032
9018031662
9018038070
9018044479
9018051559
9018059005
9018065109
9018075485
9018083847
9018091903
9018100448
9018105331
9018112716
9018119918
9018126327
9018131515
9018138595
9018145248
9018151718
9018159103
9018165817
9018173446
9018179489
9018185592
9018190719
9018198104
9018203231
9018209213
9018215133
9018224288
9018230697
9018236739
9018243331
9018250045
9018251937
9018261947
9018268722
9018273544
9018279464
9018285567
9018291610
9018295943
9018301986
9018309005
9018315780
9018320663
9018326827
9018331771
9018339705
9018344771
9018351912
9018358443
9018365218
9018373214
9018380721
9018387374
9018394454
9018400679
9018406112
9018414229
9018420516
9018426497
9018433699
9018440535
9018447249
9018454695
9018460066
9018467086
9018472884
9018479842
9018486189
9018491622
9018498335
9018503890
9018511580
9018518111
9018524153
9018531172
9018536360
9018542769
9018548811
9018555586
9018562788
9018569807
9018574812
9018582136
9018588057
9018593855
9018599654
9018607588
9018614241
9018620772
9018626997
9018633955
9018638655
9018646406
9018654890
9018661726
9018668074
9018673079
9018679182
9018685957
9018689680
9018698225
9018707258
9018713606
9018718000
9018727217
9018731245
9018739973
9018745527
9018752180
9018758955
9018767378
9018774031
9018781660
9018787885
9018794660
9018802717
9018808515
9018816145
9018824873
9018831403
9018837202
9018842817
9018850629
9018857771
9018864729
9018870466
9018878950
9018884626
9018891828
9018899152
9018906232
9018911603
9018915815
9018925764
9018931013
9018941572
9018946576
9018955121
9018961225
9018968854
9018974958
9018982648
9018990216
9019002240
9019010236
9019015973
9019024762
9019031171
9019041242
9019049787
9019060651
9019067365
9019076825
9019082318
9019090741
9019098920
9019106183
9019112103
9019117597
9019129193
9019136151
9019141950
9019149579
9019158429
9019162823
9019171368
9019179364
9019193463
9019203595
9019211285
9019217450
9019224225
9019228985
9019235577
9019241559
9019246441
9019253949
9019257733
9019266156
9019272259
9019278302
9019285870
9019292645
9019298626
9019303387
9019309246
9019314068
9019320355
9019326153
9019334149
9019340924
9019345318
9019350811
9019357525
9019363507
9019369183
9019375958
9019381756
9019387432
9019391644
9019397869
9019403423
9019408611
9019414715
9019421673
9019426983
9019433758
9019438519
9019445171
9019449932
9019455486
9019460491
9019467937
9019472820
9019478130
9019482769
9019489483
9019494121
9019500713
9019506451
9019514385
9019518841
9019525616
9019531963
9019538006
9019545452
9019552410
9019559551
9019564617
9019571636
9019575237
9019582866
9019588848
9019594402
9019603496
9019610088
9019618816
9019625652
9019636394
9019644634
9019652812
9019660015
9019667583
9019673686
9019681682
9019688823
9019695049
9019701701
9019708721
9019713725
9019720317
9019726482
9019732463
9019739055
9019745525
9019750713
9019756145
9019762675
9019765788
9019773051
9019778361
9019783916
9019790202
9019796306
9019802104
9019808330
9019813457
9019820048
9019827189
9019832622
9019838481
9019844279
9019850261
9019855205
9019862040
9019868205
9019874186
9019881144
9019886088
9019893412
9019898722
9019907450
9019912883
9019918315
9019925639
9019929118
9019936381
9019942973
9019947917
9019955424
9019961711
9019968241
9019974406
9019979228
9019987101
9019991435
9019999186
9020006999
9020011881
9020019328
9020025675
9020031718
9020038737
9020045329
9020052775
9020057719
9020064432
9020072001
9020079325
9020085734
9020091227
9020100870
9020106486
9020111063
9020118693
9020124247
9020135538
9020141092
9020149149
9020155069
9020163126
9020171244
9020177958
9020185465
9020191629
9020197367
9020205179
9020212687
9020219828
9020229654
9020235330
9020243387
9020248819
9020256204
9020261453
9020268778
9020275186
9020281473
9020285196
9020293314
9020300028
9020306253
9020313272
9020320169
9020326517
9020332559
9020339273
9020345804
9020352213
9020359537
9020364908
9020371805
9020378946
9020385477
9020391580
9020396341
9020403909
9020412454
9020419534
9020427225
9020433267
9020439737
9020447000
9020455789
9020463357
9020469827
9020478189
9020486245
9020492227
9020499307
9020505960
9020513650
9020519387
9020526590
9020534036
9020540628
9020548135
9020553201
9020561440
9020567727
9020575662
9020580239
9020588906
9020598306
9020604287
9020612527
9020618508
9020627053
9020635232
9020642556
9020649331
9020655984
9020666238
9020672036
9020679665
9020686684
9020693825
9020701394
9020706826
9020716591
9020724038
9020731362
9020741311
9020749428
9020756508
9020765725
9020773110
9020781166
9020788308
9020796120
9020802834
9020809059
9020815590
9020822243
9020829445
9020839638
9020846901
9020854592
9020860329
9020865944
9020872597
9020878334
9020885048
9020890724
9020895912
9020903420
9020908424
9020915016
9020920754
9020927712
9020932533
9020940224
9020947487
9020952614
9020960121
9020966408
9020973610
9020979530
9020985390
9020991493
9020998085
9021004249
9021008949
9021015114
9021021461
9021027565
9021034706
9021038917
9021045753
9021051979
9021057045
9021063270
9021068641
9021074806
9021081154
9021085853
9021092323
9021097023
9021103492
9021108985
9021114906
9021121681
9021127235
9021132118
9021137794
9021144264
9021150245
9021155982
9021162208
9021167884
9021172523
9021179054
9021184120
9021190772
9021197669
9021203162
9021208289
9021213722
9021220313
9021225318
9021232215
9021238502
9021244849
9021251014
9021256568
9021262611
9021268836
9021274207
9021280982
9021287940
9021294471
9021300330
9021306006
9021311622
9021319068
9021324744
9021332007
9021338477
9021344764
9021351600
9021357825
9021363929
9021371192
9021377967
9021385535
9021391700
9021398780
9021405127
9021410559
9021418982
9021424903
9021438697
9021445532
9021451026
9021459021
9021466467
9021475012
9021486914
9021495520
9021504004
9021510962
9021516516
9021523108
9021529517
9021535254
9021543738
9021549841
9021555212
9021560339
9021567602
9021572607
9021579932
9021586340
9021592627
9021599280
9021605688
9021612951
9021619909
9021627051
9021632544
9021639319
9021644507
9021652075
9021659155
9021664038
9021669470
9021677343
9021684790
9021691381
9021695349
9021703772
9021710485
9021717016
9021724157
9021730566
9021736669
9021742834
9021749182
9021755956
9021761877
9021768530
9021775305
9021781652
9021789770
9021793371
9021801428
9021807897
9021814123
9021820287
9021826452
9021834325
9021839635
9021847387
9021852453
9021858495
9021866003
9021872350
9021879308
9021885595
9021891515
9021898107
9021905614
9021911230
9021920568
9021927282
9021935399
9021941991
9021948278
9021954137
9021962499
9021968969
9021974828
9021980626
9021989049
9021995519
9022003392
9022010717
9022016454
9022023473
9022030797
9022039952
9022047154
9022054173
9022059789
9022065953
9022073400
9022079381
9022084142
9022091649
9022098302
9022104100
9022109288
9022116063
9022121251
9022127293
9022134312
9022140111
9022145299
9022152135
9022157384
9022165074
9022170384
9022177342
9022182469
9022188512
9022193638
9022201634
9022206822
9022213719
9022219700
9022225194
9022230931
9022238377
9022244481
9022250828
9022256749
9022262974
9022269749
9022277867
9022285191
9022290928
9022296238
9022302098
9022308750
9022312962
9022319065
9022326695
9022332249
9022336949
9022343846
9022349095
9022357395
9022362889
9022368748
9022375523
9022381016
9022387058
9022392796
9022398716
9022404820
9022410679
9022415134
9022422276
9022428379
9022433445
9022439548
9022445164
9022450047
9022456943
9022462376
9022469028
9022473789
9022480442
9022486606
9022492649
9022496067
9022504429
9022511020
9022517551
9022523166
9022527744
9022535373
9022540561
9022546970
9022552341
9022560093
9022567356
9022573276
9022578037
9022585300
9022591281
9022598606
9022608493
9022612522
9022621860
9022628635
9022635593
9022643222
9022648776
9022655429
9022667636
9022675571
9022682590
9022687412
9022693454
9022701328
9022707980
9022714450
9022721652
9022728122
9022733493
9022739780
9022746799
9022753268
9022758700
9022765048
9022771579
9022777988
9022783969
9022790439
9022797946
9022804843
9022811496
9022816989
9022824435
9022829989
9022837253
9022842624
9022849643
9022854953
9022861667
9022867038
9022874118
9022881930
9022887545
9022892977
9022899508
9022907809
9022914218
9022919589
9022927035
9022930880
9022939486
9022945773
9022951632
9022957308
9022964816
9022970370
9022977206
9022982638
9022989901
9022995516
9023002902
9023009249
9023016695
9023023409
9023029574
9023036227
9023040926
9023047701
9023054842
9023062044
9023067354
9023073824
9023079012
9023086642
9023093477
9023099520
9023107943
9023114412
9023121004
9023128145
9023133211
9023140108
9023146334
9023152865
9023159884
9023166353
9023172762
9023179354
9023186495
9023192110
9023198885
9023205904
9023213106
9023220186
9023225191
9023234896
9023243135
9023251375
9023257906
9023265901
9023274202
9023282381
9023290865
9023297273
9023306917
9023312654
9023322054
9023327242
9023334077
9023339998
9023347200
9023351778
9023358003
9023364168
9023370576
9023377107
9023384370
9023389070
9023396333
9023401155
9023407625
9023413850
9023420808
9023427644
9023433259
9023440095
9023446138
9023451387
9023458345
9023463655
9023471040
9023476716
9023483735
9023488923
9023496492
9023501802
9023509187
9023514436
9023520478
9023525666
9023532624
9023537873
9023545014
9023550202
9023557832
9023563142
9023569123
9023577546
9023582917
9023588715
9023594392
9023600251
9023605805
9023611848
9023616181
9023622651
9023628693
9023634797
9023639558
9023646455
9023651765
9023657258
9023664216
9023669953
9023676667
9023681245
9023687775
9023692353
9023698823
9023705659
9023711213
9023716889
9023722870
9023728974
9023733552
9023739106
9023747162
9023753144
9023758942
9023764679
9023772004
9023776154
9023783905
9023789093
9023796418
9023802033
9023807526
9023812409
9023819245
9023824860
9023831940
9023842194
9023845917
9023855744
9023861725
9023868378
9023876373
9023883576
9023892059
9023898773
9023907013
9023912628
9023920685
9023924530
9023932953
9023939667
9023946075
9023952301
9023959198
9023965973
9023972443
9023976288
9023984466
9023992401
9023998932
9024004791
9024011383
9024018097
9024024627
9024031219
9024037811
9024044281
9024050750
9024056121
9024062591
9024069488
9024075958
9024078216
9024087738
9024093963
9024100494
9024108001
9024114593
9024121246
9024126312
9024133514
9024140045
9024147003
9024153594
9024159759
9024166412
9024172759
9024179290
9024185394
9024192046
9024199737
9024205047
9024211700
9024216705
9024224517
9024230865
9024237151
9024244598
9024250823
9024256621
9024262847
9024268951
9024275847
9024282012
9024287688
9024295196
9024301360
9024307647
9024314971
9024321135
9024327361
9024334746
9024341643
9024347075
9024352874
9024359649
9024365447
9024370757
9024378264
9024387053
9024393279
9024399810
9024404509
9024413237
9024418669
9024425261
9024431304
9024439910
9024445830
9024452910
9024459441
9024467864
9024474089
9024481596
9024490080
9024497832
9024503996
9024513152
9024520476
9024529570
9024536345
9024544463
9024549773
9024558195
9024561980
9024570036
9024573759
9024582060
9024585661
9024594389
9024602080
9024608366
9024610747
9024620085
9024624601
9024632353
9024638517
9024644987
9024649992
9024656401
9024663237
9024669645
9024675932
9024682280
9024688261
9024694487
9024700468
9024706633
9024712797
9024719084
9024725431
9024730009
9024736662
9024745512
9024751432
9024756559
9024763151
9024768339
9024774870
9024781584
9024786588
9024793668
9024800199
9024805326
9024812711
9024817960
9024825529
9024831388
9024836759
9024842802
9024848356
9024854703
9024860319
9024865385
9024870939
9024877286
9024881498
9024888517
9024894681
9024900236
9024905118
9024911832
9024916471
9024924527
9024930143
9024935819
9024942411
9024946439
9024953153
9024957669
9024964811
9024970243
9024975797
9024981595
9024987027
9024993131
9024998868
9025004056
9025010587
9025017423
9025024137
9025029752
9025036160
9025040433
9025046659
9025053189
9025062283
9025070462
9025074124
9025080960
9025086392
9025094388
9025106412
9025109952
9025118985
9025125394
9025131314
9025137357
9025143399
9025150601
9025155484
9025162686
9025169766
9025176358
9025181302
9025188687
9025193814
9025202481
9025207486
9025215115
9025220608
9025228299
9025233181
9025240262
9025245144
9025253994
9025259365
9025265469
9025272427
9025278225
9025285305
9025290921
9025298001
9025305081
9025310391
9025317715
9025323086
9025330899
9025336514
9025342800
9025351467
9025357754
9025364102
9025370693
9025377102
9025383450
9025389370
9025396084
9025403225
9025408596
9025415066
9025420254
9025427090
9025434109
9025440456
9025447292
9025453518
9025459743
9025466701
9025472256
9025478847
9025484524
9025490078
9025498440
9025505520
9025511806
9025517849
9025524013
9025530971
9025536525
9025544704
9025549892
9025557460
9025563198
9025569728
9025576015
9025582302
9025589321
9025595729
9025601406
9025608242
9025614467
9025619777
9025626125
9025633998
9025640651
9025644557
9025652919
9025660671
9025666835
9025674587
9025681361
9025687221
9025697292
9025703639
9025709132
9025718593
9025725124
9025732448
9025739772
9025746242
9025751979
9025759547
9025764918
9025771632
