9236238257
9236243506
9236248022
9236253027
9236258642
9236263403
9236268347
9236273840
9236279272
9236283911
9236288794
9236293676
9236298620
9236302954
9236308508
9236313330
9236317785
9236322058
9236326513
9236332250
9236338049
9236343115
9236349706
9236356176
9236361425
9236366735
9236373083
9236381078
9236385961
9236392858
9236401159
9236408910
9236414770
9236421484
9236428442
9236437048
9236444555
9236451696
9236459997
9236465978
9236473546
9236480199
9236489904
9236495702
9236502294
9236509313
9236515783
9236522497
9236529149
9236534948
9236545018
9236553380
9236559972
9236567601
9236573522
9236580480
9236587133
9236594701
9236603307
9236608434
9236616185
9236622594
9236629979
9236637547
9236643407
9236652257
9236661168
9236667149
9236673802
9236681493
9236689000
9236697484
9236704564
9236710789
9236718968
9236725682
9236733067
9236741368
9236746983
9236756566
9236762852
9236771824
9236777867
9236786229
9236793919
9236799840
9236810154
9236816685
9236824254
9236830906
9236839024
9236845250
9236851597
9236859776
9236867710
9236875279
9236881871
9236889134
9236896580
9236903660
9236911961
9236919224
9236926609
9236932774
9236940159
9236946812
9236956761
9236963230
9236971226
9236978794
9236986179
9236993137
9236999912
9237008274
9237015598
9237024082
9237030674
9237037144
9237045933
9237053623
9237062290
9237070225
9237079014
9237084995
9237093235
9237101047
9237108799
9237116245
9237124546
9237130832
9237136264
9237144748
9237152683
9237159397
9237167820
9237176059
9237182895
9237188266
9237197605
9237203830
9237210422
9237215610
9237225742
9237232944
9237240451
9237245761
9237253269
9237260349
9237267307
9237276096
9237282687
9237291110
9237297946
9237306003
9237311374
9237319247
9237327365
9237334994
9237341830
9237349948
9237356601
9237362826
9237371371
9237378451
9237386081
9237394565
9237401706
9237410312
9237417209
9237423251
9237431430
9237439731
9237448031
9237456088
9237463534
9237470065
9237479708
9237487277
9237496066
9237505587
9237511325
9237520053
9237528170
9237535067
9237541720
9237550753
9237556918
9237566012
9237573763
9237580782
9237588656
9237597262
9237605441
9237611544
9237619479
9237627657
9237634798
9237640475
9237647677
9237656283
9237663119
9237671908
9237678499
9237686312
9237693819
9237702486
9237708223
9237720858
9237726656
9237736422
9237743380
9237752474
9237762056
9237769320
9237777925
9237784883
9237792757
9237800020
9237808870
9237817049
9237824983
9237833895
9237841036
9237849214
9237855867
9237864473
9237873384
9237880525
9237889925
9237897676
9237906221
9237911531
9237920442
9237927949
9237936555
9237944002
9237952058
9237960481
9237966096
9237974275
9237982637
9237991487
9238000703
9238006990
9238014375
9238022310
9238028535
9238036714
9238044526
9238052827
9238060640
9238067598
9238074311
9238081391
9238089570
9238095735
9238103608
9238111970
9238120637
9238129182
9238136933
9238143464
9238150910
9238158235
9238167329
9238175385
9238183808
9238191071
9238198518
9238206208
9238215241
9238222260
9238229401
9238236664
9238243867
9238250214
9238257538
9238265229
9238272980
9238279877
9238287446
9238294465
9238300934
9238307770
9238314789
9238323456
9238330658
9238337433
9238345368
9238352509
9238360505
9238368866
9238377533
9238386566
9238394867
9238403656
9238409943
9238419464
9238428681
9238435517
9238445709
9238455658
9238462982
9238470856
9238478363
9238485260
9238494110
9238499969
9238508331
9238517364
9238524078
9238532684
9238540436
9238547638
9238555817
9238561493
9238571197
9238581085
9238586883
9238598114
9238609588
9238620453
9238630157
9238638275
9238644867
9238651825
9238658111
9238664947
9238671600
9238678253
9238685516
9238691802
9238699310
9238705657
9238712066
9238718658
9238727508
9238733123
9238740630
9238746002
9238752410
9238761199
9238766570
9238773711
9238779998
9238787994
9238795684
9238801665
9238807281
9238816436
9238823211
9238828765
9238836028
9238841399
9238849456
9238856658
9238864348
9238868987
9238877349
9238883513
9238890716
9238896880
9238903655
9238909697
9238916839
9238922698
9238929290
9238937163
9238943999
9238951873
9238958464
9238965361
9238973601
9238979888
9238988616
9238997039
9239008879
9239021636
9239027007
9239037016
9239042937
9239050749
9239059294
9239067107
9239073393
9239080534
9239089262
9239092741
9239103789
9239110686
9239117644
9239125151
9239132048
9239137785
9239144865
9239150969
9239158110
9239168120
9239174650
9239181669
9239190092
9239197966
9239205351
9239213224
9239219389
9239225920
9239233122
9239240385
9239246367
9239253508
9239264738
9239273100
9239280363
9239288847
9239295500
9239303007
9239310636
9239318571
9239324858
9239332792
9239341764
9239344999
9239354887
9239363065
9239372953
9239380582
9239385282
9239395109
9239402555
9239407621
9239417387
9239422697
9239430265
9239436735
9239442228
9239448820
9239454801
9239462247
9239469388
9239473783
9239479825
9239485929
9239492154
9239498441
9239504545
9239511564
9239515897
9239523404
9239528348
9239535062
9239540067
9239547757
9239553922
9239558927
9239564725
9239571317
9239576688
9239582120
9239590299
9239596952
9239604215
9239610440
9239616055
9239622769
9239629544
9239638638
9239644803
9239649075
9239655057
9239659940
9239667813
9239673367
9239678433
9239684048
9239689420
9239693814
9239699857
9239707730
9239713406
9239718228
9239724210
9239731961
9239736844
9239744290
9239750210
9239756192
9239760464
9239766263
9239772000
9239779629
9239784146
9239791287
9239797818
9239803555
9239809781
9239816067
9239820340
9239828579
9239835843
9239840176
9239848050
9239856533
9239862698
9239869473
9239875088
9239881253
9239889736
9239895169
9239901089
9239908779
9239914639
9239921353
9239928616
9239934048
9239940945
9239948147
9239954678
9239961208
9239967068
9239973660
9239980923
9239987881
9239993618
9240000820
9240007534
9240014004
9240022976
9240029690
9240034756
9240040554
9240048427
9240054531
9240060390
9240066799
9240074062
9240080654
9240087002
9240092251
9240099636
9240107998
9240115444
9240121853
9240130336
9240136135
9240145717
9240151088
9240159694
9240165859
9240172573
9240177639
9240183864
9240189052
9240195827
9240204250
9240210536
9240216213
9240223964
9240230922
9240237087
9240244045
9240248805
9240258449
9240264369
9240270900
9240276149
9240282253
9240290858
9240298183
9240303676
9240311610
9240317226
9240324000
9240331081
9240337245
9240343715
9240351283
9240356593
9240364100
9240371913
9240378871
9240385341
9240392238
9240397670
9240404811
9240410853
9240416713
9240424830
9240430995
9240438807
9240446009
9240453395
9240461146
9240467128
9240474635
9240483058
9240487879
9240495875
9240501734
9240510401
9240516627
9240523585
9240529810
9240535426
9240542140
9240547877
9240555384
9240562403
9240566859
9240573389
9240579249
9240585291
9240590968
9240598658
9240604212
9240610133
9240615321
9240621485
9240628199
9240634180
9240641871
9240648646
9240655054
9240661768
9240668909
9240677027
9240684107
9240691736
9240696741
9240702173
9240708704
9240712732
9240720423
9240726404
9240732264
9240736719
9240742517
9240748682
9240752893
9240760401
9240766321
9240771631
9240777674
9240783777
9240790003
9240795618
9240800257
9240806726
9240812708
9240817713
9240823206
9240830286
9240835169
9240841211
9240847681
9240853662
9240857996
9240863916
9240869470
9240876367
9240880212
9240886316
9240892297
9240897729
9240905664
9240911401
9240915613
9240921350
9240928125
9240933862
9240941675
9240948694
9240954736
9240961694
9240966516
9240974511
9240980859
9240987573
9240993738
9240998987
9241006677
9241012780
9241019860
9241026452
9241032800
9241038720
9241045251
9241052331
9241058984
9241067224
9241072961
9241079309
9241085961
9241093041
9241099816
9241106652
9241113244
9241118859
9241126061
9241132348
9241144250
9241150964
9241161889
9241168115
9241176415
9241182153
9241190697
9241198327
9241205102
9241212365
9241217065
9241224694
9241230920
9241235009
9241243737
9241252892
9241259667
9241266015
9241271630
9241277489
9241286217
9241291405
9241298302
9241305932
9241312767
9241317894
9241324303
9241333092
9241339806
9241345971
9241352990
9241360131
9241366906
9241373619
9241380699
9241386986
9241394615
9241400048
9241406334
9241413170
9241419884
9241426598
9241434410
9241441673
9241447472
9241454674
9241461144
9241468956
9241475548
9241483788
9241490074
9241497276
9241504600
9241511681
9241516930
9241523033
9241528770
9241536156
9241548729
9241556114
9241564659
9241573326
9241581138
9241588768
9241597130
9241603111
9241611046
9241619529
9241626426
9241632652
9241641380
9241647300
9241654808
9241661399
9241667137
9241673606
9241679832
9241686363
9241693382
9241700340
9241706993
9241714012
9241721824
9241729026
9241735496
9241744407
9241751365
9241759055
9241766135
9241772788
9241778648
9241784019
9241792869
9241799033
9241804893
9241810508
9241816428
9241823203
9241828879
9241835959
9241841392
9241847434
9241853904
9241858970
9241865195
9241870444
9241876853
9241883262
9241889060
9241894492
9241900657
9241907493
9241912131
9241918845
9241925925
9241931968
9241936850
9241943015
9241949973
9241954123
9241961447
9241965720
9241971823
9241978110
9241983298
9241988852
9241995810
9242001975
9242008261
9242013144
9242019248
9242026755
9242033408
9242039694
9242044211
9242050498
9242057028
9242062949
9242068137
9242074484
9242079428
9242085410
9242091818
9242097922
9242104513
9242109824
9242115927
9242122702
9242128134
9242134482
9242140158
9242146506
9242153891
9242159079
9242164389
9242170981
9242177206
9242182272
9242189108
9242194784
9242202414
9242207907
9242212301
9242220724
9242225973
9242233358
9242238974
9242245993
9242251791
9242258566
9242265341
9242273580
9242280294
9242287618
9242294638
9242303427
9242310751
9242318563
9242323873
9242333883
9242339742
9242346273
9242353597
9242359701
9242365438
9242371542
9242378500
9242384664
9242391073
9242397604
9242404562
9242410848
9242417501
9242423788
9242431173
9242436849
9242443807
9242449422
9242456502
9242462301
9242470174
9242475850
9242481710
9242489522
9242495870
9242502950
9242507528
9242514669
9242520040
9242527181
9242533406
9242540486
9242546041
9242553243
9242559590
9242567525
9242575215
9242580403
9242589009
9242595601
9242601888
9242606954
9242615315
9242620809
9242627522
9242635823
9242641988
9242648091
9242654439
9242661275
9242667561
9242674214
9242680562
9242687581
9242695332
9242701009
9242706502
9242713887
9242719624
9242725362
9242733174
9242739644
9242746724
9242752095
9242759175
9242765523
9242771260
9242776936
9242784199
9242790059
9242797810
9242805867
9242812886
9242818257
9242826130
9242831868
9242839741
9242845906
9242853718
9242859211
9242867085
9242873005
9242880451
9242886982
9242891987
9242901875
9242904926
9242913227
9242920796
9242927021
9242933674
9242941181
9242948017
9242956074
9242962666
9242968586
9242976032
9242981770
9242988117
9242995136
9243002155
9243008381
9243013325
9243020283
9243026630
9243032795
9243039509
9243044269
9243051960
9243056721
9243064594
9243069416
9243075947
9243082294
9243088154
9243095478
9243100849
9243106098
9243112934
9243119159
9243124164
9243130817
9243135700
9243141742
9243148029
9243153095
9243159442
9243165424
9243172077
9243177570
9243183612
9243189105
9243194354
9243201251
9243206439
9243211871
9243219074
9243224017
9243230365
9243236774
9243240680
9243247150
9243252094
9243258380
9243263507
9243271686
9243277179
9243283160
9243288531
9243293841
9243300555
9243303302
9243311786
9243317706
9243323627
9243328937
9243334979
9243341998
9243348712
9243353656
9243362384
9243366778
9243373919
9243380084
9243385333
9243391986
9243396930
9243403338
9243409747
9243414996
9243421344
9243428118
9243433978
9243439410
9243447039
9243452532
9243459002
9243465594
9243472552
9243477496
9243483660
9243491412
9243503131
9243509112
9243516924
9243522051
9243529681
9243535601
9243543536
9243552447
9243559222
9243565508
9243572283
9243578509
9243584307
9243590594
9243596941
9243604815
9243610491
9243616900
9243624529
9243630266
9243636004
9243643877
9243651751
9243657671
9243664324
9243671465
9243675676
9243682757
9243688921
9243696245
9243701860
9243709002
9243715410
9243722002
9243728777
9243733721
9243742021
9243746904
9243755022
9243759783
9243766497
9243773577
9243779802
9243786394
9243792558
9243800127
9243806474
9243811723
9243818254
9243825090
9243831377
9243838030
9243844255
9243851213
9243858965
9243863786
9243871782
9243877824
9243884050
9243889970
9243896928
9243906877
9243913347
9243919206
9243925554
9243931474
9243937700
9243945390
9243951066
9243958146
9243963762
9243970659
9243976762
9243983232
9243989274
9243996110
9244003862
9244010820
9244016069
9244023759
9244029924
9244035905
9244043656
9244050431
9244058122
9244062882
9244071305
9244077836
9244083573
9244091691
9244101151
9244106400
9244114274
9244122392
9244127152
9244136124
9244144364
9244151810
9244158280
9244165238
9244173722
9244181290
9244187516
9244193436
9244200333
9244207841
9244213395
9244219254
9244224930
9244232560
9244237992
9244244156
9244252030
9244257462
9244264237
9244269669
9244276932
9244282303
9244287308
9244294877
9244301102
9244307999
9244313675
9244321122
9244326920
9244333878
9244338944
9244345902
9244352738
9244357437
9244364640
9244368851
9244376541
9244382523
9244387894
9244392166
9244400406
9244405777
9244411209
9244417740
9244422623
9244427628
9244434586
9244440140
9244446365
9244451248
9244457657
9244462601
9244468826
9244475601
9244481338
9244486954
9244491470
9244498672
9244503555
9244511856
9244516434
9244523331
9244528702
9244534134
9244539810
9244546707
9244551162
9244558059
9244563431
9244569656
9244577347
9244581741
9244587356
9244593643
9244599685
9244605606
9244611709
9244618118
9244623855
9244630874
9244636611
9244641861
9244648941
9244654251
9244661575
9244666580
9244673660
9244678298
9244685317
9244690383
9244696914
9244704727
9244710647
9244721511
9244728896
9244735915
9244742629
9244749526
9244756484
9244763259
9244771316
9244778396
9244784316
9244790420
9244797500
9244803786
9244809463
9244815627
9244822829
9244828811
9244836318
9244841445
9244848647
9244855788
9244862319
9244868422
9244874892
9244881789
9244886794
9244894912
9244899916
9244905715
9244913039
9244919753
9244926589
9244932753
9244937575
9244946669
9244952956
9244959120
9244966078
9244972365
9244978591
9244984694
9244990187
9244997878
9245004836
9245010390
9245016371
9245024123
9245029311
9245037001
9245043349
9245048903
9245054274
9245062148
9245068129
9245078261
9245084669
9245091811
9245099623
9245104933
9245111159
9245116957
9245124647
9245130385
9245138197
9245143202
9245150953
9245155348
9245163038
9245168532
9245176283
9245182447
9245189650
9245195570
9245201307
9245207594
9245214857
9245221205
9245228346
9245235426
9245240431
9245248426
9245253431
9245259901
9245267225
9245274183
9245280531
9245285353
9245292555
9245299940
9245305311
9245314283
9245321668
9245329115
9245334303
9245340772
9245348890
9245355543
9245364454
9245373365
9245378858
9245389173
9245395032
9245403272
9245408948
9245416639
9245422193
9245429273
9245436048
9245442457
9245448255
9245452955
9245460340
9245464917
9245473584
9245479749
9245485852
9245492322
9245497693
9245502698
9245508008
9245514051
9245519361
9245525403
9245530713
9245536267
9245543592
9245549085
9245554090
9245560010
9245566358
9245572766
9245579602
9245587171
9245591748
9245599317
9245605908
9245612988
9245618848
9245625256
9245629468
9245637097
9245641309
9245647595
9245653699
9245659314
9245666211
9245670239
9245678113
9245682934
9245689831
9245692639
9245701123
9245708386
9245713147
9245718396
9245726330
9245731274
9245737073
9245742261
9245748425
9245755078
9245760388
9245766430
9245771191
9245777295
9245783703
9245790356
9245795727
9245800915
9245807751
9245813061
9245819043
9245824597
9245830822
9245836132
9245841992
9245847180
9245853710
9245860302
9245864269
9245870556
9245879040
9245884960
9245890270
9245895703
9245902355
9245908032
9245914867
9245921948
9245930676
9245938915
9245946667
9245953197
9245960644
9245967297
9245975048
9245979931
9245985790
9245992382
9245998119
9246003368
9246009838
9246016735
9246021496
9246028271
9246034008
9246040539
9246046581
9246053356
9246058239
9246065380
9246071727
9246076366
9246084362
9246088939
9246095714
9246103710
9246111705
9246117687
9246124340
9246128490
9246135753
9246141185
9246147960
9246154003
9246161083
9246165172
9246172557
9246178172
9246184642
9246191051
9246197276
9246204906
9246209789
9246216502
9246221019
9246227733
9246234569
9246240245
9246246959
9246252818
9246258800
9246264598
9246270579
9246277843
9246283702
9246289622
9246296947
9246303783
9246309337
9246316051
9246321544
9246329478
9246336070
9246340770
9246351268
9246356456
9246365977
9246372203
9246376841
9246384227
9246389232
9246397960
9246405284
9246410716
9246417552
9246422984
9246429148
9246436045
9246443370
9246448252
9246455454
9246460642
9246469737
9246473948
9246481333
9246487986
9246496043
9246501597
9246508860
9246514964
9246523203
9246530283
9246538462
9246546091
9246551279
9246562449
9246568858
9246576853
9246583079
9246590281
9246596873
9246603281
9246609080
9246615427
9246622019
9246626841
9246634104
9246638987
9246648630
9246651621
9246660715
9246666086
9246673533
9246677866
9246685373
9246691538
9246697031
9246704172
9246709726
9246716013
9246723093
9246729196
9246734629
9246740122
9246746836
9246754038
9246760141
9246766001
9246772104
9246776010
9246782907
9246788889
9246795664
9246802011
9246808237
9246814279
9246820810
9246826669
9246831186
9246838815
9246845529
9246851205
9246857614
9246863229
9246868967
9246876230
9246880807
9246887521
9246893381
9246899667
9246904306
9246910592
9246916879
9246922616
9246928842
9246933053
9246939706
9246946176
9246951547
9246957101
9246962655
9246969125
9246976144
9246980783
9246987558
9246993356
9246998361
9247005380
9247010507
9247015878
9247022103
9247028512
9247032907
9247039987
9247046395
9247051889
9247058480
9247063973
9247070077
9247075387
9247081246
9247086984
9247093453
9247098580
9247105416
9247115426
9247122750
9247129525
9247134957
9247142587
9247148202
9247157723
9247163522
9247170541
9247175179
9247182259
9247188058
9247194771
9247201424
9247207101
9247214486
9247220528
9247226266
9247232430
9247238167
9247245064
9247252083
9247257943
9247264962
9247270882
9247278084
9247283516
9247290841
9247298592
9247303292
9247312203
9247317818
9247325508
9247331124
9247338997
9247345772
9247351509
9247357857
9247365120
9247371529
9247377266
9247383675
9247391609
9247398201
9247405403
9247410103
9247417244
9247424934
9247429817
9247435982
9247443306
9247449837
9247456306
9247462776
9247467720
9247475288
9247481758
9247488045
9247494881
9247503059
9247508613
9247514839
9247521797
9247528084
9247533577
9247541511
9247548103
9247554207
9247560066
9247567756
9247573188
9247579353
9247586738
9247592476
9247598518
9247606208
9247612495
9247618110
9247623725
9247631355
9247637458
9247643074
9247649116
9247656745
9247662727
9247669624
9247676765
9247681526
9247689521
9247695930
9247701911
9247708991
9247714240
9247720405
9247729011
9247735664
9247741889
9247748969
9247757026
9247763007
9247770759
9247776679
9247784980
9247792487
9247799445
9247806159
9247811042
9247817267
9247824653
9247831855
9247838263
9247844367
9247849189
9247857673
9247862677
9247871039
9247877021
9247883673
9247890387
9247896308
9247903327
9247909186
9247914435
9247921942
9247925177
9247934272
9247939582
9247947089
9247952033
9247959479
9247965277
9247970526
9247977118
9247982428
9247989630
9247995001
9248001288
9248008185
9248014410
9248021491
9248027411
9248033514
9248039679
9248044318
9248051154
9248057806
9248063788
9248070441
9248076422
9248083929
9248089789
9248095282
9248102606
9248107428
9248115118
9248119940
9248127142
9248133063
9248139349
9248145086
9248150641
9248156073
9248161810
9248168341
9248172674
9248179205
9248185247
9248192694
9248197515
9248202948
9248208929
9248214361
9248221502
9248226507
9248232672
9248239569
9248245977
9248252142
9248258673
9248263983
9248270208
9248275884
9248282354
9248288519
9248292608
9248298895
9248303777
9248309637
9248315801
9248322942
9248332464
9248341436
9248349676
9248356512
9248364568
9248370733
9248376958
9248383306
9248388067
9248393926
9248403448
9248408880
9248415105
9248421819
9248428472
9248434209
9248441533
9248447637
9248453191
9248459661
9248465642
9248472112
9248478215
9248483953
9248490728
9248497319
9248504216
9248510869
9248516057
9248525151
9248532292
9248537114
9248543218
9248550664
9248556767
9248564946
9248571233
9248576970
9248585820
9248592717
9248598515
9248606023
9248611394
9248617986
9248625554
9248631169
9248637578
9248643071
9248650761
9248658452
9248663274
9248669804
9248674565
9248682866
9248689091
9248693852
9248701542
9248708378
9248715275
9248721745
9248727849
9248734684
9248741520
9248747502
9248753605
9248759770
9248767033
9248773747
9248780644
9248786930
9248793583
9248798771
9248805241
9248813786
9248821537
9248828617
9248835636
9248844059
9248851628
9248859318
9248866764
9248873905
9248881046
9248889103
9248896244
9248901737
9248908390
9248915592
9248922367
9248927067
9248935490
9248941410
9248947269
9248953434
9248961491
9248967899
9248974796
9248981449
9248987430
9248992191
9248998783
9249007145
9249012028
9249019108
9249024235
9249032413
9249037418
9249044681
9249049381
9249058414
9249063419
9249070377
9249075199
9249082157
9249087162
9249094364
9249102176
9249108768
9249114261
9249118656
9249126346
9249130680
9249136661
9249142642
9249149784
9249155094
9249161929
9249167117
9249172672
9249178592
9249183902
9249190677
9249198184
9249203800
9249208865
9249215213
9249221561
9249226566
9249231448
9249238467
9249245120
9249249149
9249255435
9249260623
9249266971
9249271915
9249278323
9249286929
9249291873
9249296939
9249302737
9249307803
9249313174
9249319461
9249324161
9249330569
9249335879
9249341739
9249346438
9249352176
9249356753
9249364016
9249370181
9249375918
9249380801
9249386172
9249391726
9249397403
9249402468
9249408511
9249416323
9249422732
9249430361
9249437014
9249442752
9249449099
9249456118
9249462344
9249469790
9249475466
9249480410
9249487124
9249492129
9249499819
9249505679
9249511477
9249518191
9249523440
9249529665
9249534975
9249543948
9249550539
9249556216
9249563540
9249572024
9249579348
9249583498
9249591982
9249598696
9249603884
9249611269
9249616823
9249623598
9249631716
9249637636
9249643923
9249650148
9249657045
9249665407
9249671877
9249678652
9249684999
9249691591
9249698854
9249706484
9249713259
9249718264
9249724428
9249732912
9249737795
9249744387
9249752321
9249758913
9249764650
9249771974
9249777590
9249784364
9249792787
9249798952
9249804689
9249810793
9249817445
9249824525
9249831483
9249838075
9249845338
9249852113
9249858156
9249864137
9249871278
9249878664
9249884279
9249890993
9249897645
9249904237
9249910951
9249918825
9249923646
9249931581
9249939332
9249946595
9249953370
9249958863
9249969362
9249976564
9249983216
9249991639
9249997987
9250004029
9250011476
9250018861
9250026002
9250031678
9250038026
9250045045
9250051637
9250059327
9250066224
9250070741
9250079713
9250084657
9250092896
9250098939
9250106385
9250112672
9250118958
9250125611
9250130311
9250138734
9250147584
9250152955
9250162110
9250168030
9250176392
9250183106
9250192139
9250199219
9250203492
9250209290
9250215210
9250220887
9250228028
9250234009
9250239991
9250246399
9250251587
9250257691
9250263123
9250270813
9250276490
9250282898
9250289002
9250294556
9250300110
9250307190
9250313477
9250320069
9250324890
9250330384
9250336975
9250340454
9250350891
9250356323
9250362366
9250368652
9250374207
9250379028
9250384400
9250390686
9250397766
9250402893
9250408447
9250414124
9250419373
9250427734
9250433716
9250438415
9250444397
9250450195
9250456665
9250462768
9250469971
9250480041
9250484985
9250491821
9250498535
9250504028
9250511657
9250519043
9250524475
9250530273
9250537414
9250542907
9250548889
9250554016
9250559814
9250567566
9250572448
9250578064
9250585022
9250591980
9250597351
9250603515
9250609130
9250615661
9250621765
9250629882
9250635436
9250642517
9250646179
9250653747
9250660034
9250667358
9250674438
9250680297
9250688842
9250695617
9250701415
9250707275
9250714721
9250720947
9250730041
9250737487
9250742797
9250751830
9250760863
9250765807
9250773559
9250778747
9250785216
9250792357
9250798400
9250805785
9250811767
9250818053
9250823668
9250830504
9250837340
9250845092
9250850890
9250857787
9250863158
9250872313
9250878539
9250884337
9250891112
9250898619
9250905455
9250911376
9250917418
9250924987
9250931334
9250938902
9250945860
9250951048
9250959166
9250965636
9250973631
9250979491
9250987364
9250994322
9251002318
9251009825
9251016905
9251024535
9251033018
9251039915
9251047423
9251050413
9251060850
9251066771
9251073057
9251079832
9251085264
9251092406
9251100767
9251105223
9251113218
9251119017
9251127073
9251133482
9251139463
9251148436
9251155638
9251161070
9251167662
9251175230
9251180906
9251187986
9251196592
9251201658
9251208433
9251216673
9251223814
9251231199
9251239439
9251245420
9251251219
9251257932
9251265806
9251273924
9251282713
9251288572
9251296201
9251302061
9251309995
9251315611
9251322202
9251329649
9251337827
9251343992
9251353269
9251360227
9251365598
9251375059
9251384031
9251389951
9251397764
9251404844
9251414060
9251420286
9251429685
9251438901
9251445493
9251452817
9251461057
9251468076
9251477170
9251484616
9251491819
9251499509
9251506528
9251513730
9251521543
9251527829
9251535520
9251542844
9251551389
9251559567
9251566281
9251574399
9251579892
9251588132
9251596188
9251604367
9251612119
9251619382
9251628720
9251636533
9251643491
9251653561
9251658322
9251667721
9251674191
9251682309
9251690487
9251697384
9251705502
9251712521
9251721615
9251727475
9251734433
9251742306
9251751584
9251757748
9251764950
9251773129
9251778134
9251785824
9251796749
9251802731
9251811093
9251817257
9251824337
9251833187
9251838070
9251848019
9251855831
9251862972
9251871639
9251877621
9251883846
9251890438
9251898617
9251908871
9251917171
9251924496
9251933407
9251941830
9251951961
9251958736
9251965755
9251972408
9251982235
9251988888
9251997310
9252006344
9252015499
9252022762
9252030330
9252038936
9252046932
9252054622
9252064266
9252072383
9252078914
9252085201
9252094173
9252100521
9252108394
9252116451
9252124385
9252130733
9252138729
9252145015
9252151912
9252158321
9252165340
9252172237
9252177425
9252183406
9252189265
9252195186
9252201961
9252208980
9252214473
9252220760
9252227718
9252232967
9252238765
9252244319
9252251826
9252259029
9252265986
9252274043
9252279719
9252286738
9252294368
9252302485
9252309565
9252315059
9252321406
9252327754
9252332087
9252341060
9252346309
9252354060
9252360163
9252365718
9252371943
9252378474
9252383540
9252389643
9252396174
9252402339
9252407466
9252412470
9252419245
9252424739
9252430537
9252437312
9252441889
9252447871
9252456599
9252460810
9252467097
9252473444
9252479304
9252486323
9252491755
9252499506
9252504694
9252510920
9252517023
9252522089
9252530512
9252537104
9252543635
9252551508
9252557917
9252564753
9252568842
9252576838
9252584101
9252590815
9252598566
9252604487
9252610956
9252618525
9252622980
9252630915
9252635614
9252641962
9252648554
9252653376
9252662043
9252668695
9252675104
9252680231
9252686762
9252694147
9252698603
9252707209
9252712396
9252719293
9252724970
9252730463
9252736505
9252743036
9252749994
9252760187
9252770685
9252778070
9252786554
9252793451
9252802179
9252809625
9252816583
9252826959
9252835321
9252845514
9252854181
9252861505
9252868890
9252874261
9252882989
9252890985
9252896051
9252904962
9252910577
9252918084
9252925836
9252931573
9252938470
9252945733
9252954095
9252959039
9252965142
9252972528
9252980035
9252986077
9252993524
9253001092
9253008905
9253015313
9253021539
9253028375
9253035821
9253041680
9253047784
9253055230
9253062432
9253070245
9253079034
9253086297
9253093316
9253100335
9253108147
9253116143
9253122674
9253130547
9253136407
9253144402
9253150323
9253156121
9253163567
9253173821
9253180840
9253187432
9253193535
9253200860
9253208977
9253215386
9253223259
9253232171
9253239495
9253246025
9253254204
9253259148
9253268303
9253274102
9253281243
9253286125
9253292778
9253299431
9253305290
9253312676
9253320793
9253326958
9253333061
9253340691
9253347344
9253355339
9253362724
9253369255
9253374748
9253383965
9253389519
9253397697
9253404411
9253411003
9253415703
9253422417
9253429069
9253434746
9253440239
9253446098
9253452934
9253459343
9253464897
9253471367
9253476738
9253482719
9253487358
9253493889
9253499931
9253507438
9253511711
9253519584
9253525016
9253531791
9253537834
9253544242
9253549736
9253554679
9253560051
9253566520
9253572319
9253578727
9253585075
9253591117
9253596672
9253602348
9253607719
9253613334
9253620536
9253625724
9253632621
9253638297
9253643119
9253649101
9253655143
9253660026
9253665580
9253673454
9253679069
9253685722
9253690849
9253696952
9253702384
9253709464
9253715690
9253721122
9253728019
9253734611
9253739493
9253744620
9253750968
9253758109
9253764579
9253771598
9253778922
9253785758
9253791251
9253796317
9253803763
9253808341
9253814933
9253821586
9253828605
9253833976
9253841666
9253847159
9253854911
9253862540
9253868705
9253875052
9253881339
9253887198
9253892386
9253900382
9253903739
9253914725
9253920584
9253929312
9253936881
9253943289
9253949637
9253958304
9253968741
9253974661
9253980887
9253986319
9253991995
9253998099
9254005789
9254012625
9254017691
9254023733
9254030264
9254035635
9254043631
9254051871
9254056936
9254062735
9254069571
9254075369
9254081228
9254086966
9254094412
9254100760
9254108267
9254115774
9254122671
9254129202
9254134939
9254141531
9254150503
9254158010
9254165213
9254170156
9254178823
9254184683
9254192861
9254198355
9254206106
9254211172
9254220022
9254226309
9254231313
9254238394
9254245107
9254252676
9254259878
9254266164
9254272634
9254279104
9254286062
9254292348
9254298269
9254304372
9254310842
9254318716
9254323354
9254331167
9254338064
9254343740
9254352224
9254357778
9254364675
9254370229
9254376943
9254384023
9254389882
9254397207
9254403676
9254410939
9254416066
9254423513
9254429189
9254436452
9254441701
9254449514
9254458120
9254463491
9254470082
9254478017
9254485402
9254490712
9254498036
9254506093
9254513295
9254520131
9254526601
9254532460
9254538197
9254544484
9254551930
9254558583
9254567433
9254574635
9254580739
9254587025
9254593495
9254600941
9254606923
9254614735
9254619984
9254626881
9254632374
9254639210
9254645070
9254651112
9254658070
9254665211
9254669972
9254677907
9254682484
9254689564
9254695668
9254700490
9254707509
9254714467
9254719044
9254726368
9254733265
9254739186
9254745778
9254750965
9254756764
9254763478
9254767872
9254774830
9254779347
9254786122
9254792225
9254797413
9254804005
9254810353
9254815846
9254822071
9254828114
9254833851
9254839832
9254846974
9254852711
9254858997
9254864307
9254869984
9254875477
9254881031
9254887867
9254894154
9254900318
9254905872
9254911549
9254916859
9254922962
9254928272
9254934132
9254941151
9254947071
9254953113
9254958851
9254964344
9254969715
9254976307
9254983387
9254987598
9254994434
9254999866
9255006275
9255012012
9255020374
9255027881
9255033435
9255039966
9255046314
9255050586
9255056934
9255064075
9255072498
9255078968
9255085498
9255092151
9255098621
9255104541
9255110950
9255118945
9255125720
9255132312
9255138599
9255146289
9255151111
9255160938
9255168323
9255175342
9255182056
9255187549
9255196765
9255202624
9255208972
9255215686
9255223315
9255227832
9255235583
9255241321
9255247424
9255253528
9255261340
9255268298
9255273852
9255281054
9255286731
9255292468
9255299731
9255305835
9255313342
9255320178
9255327563
9255333667
9255340136
9255346423
9255352893
9255359362
9255366748
9255373217
9255379931
9255386645
9255391650
9255398608
9255405810
9255412036
9255418871
9255426074
9255434557
9255442431
9255450854
9255460192
9255468249
9255475024
9255482104
9255489306
9255495226
9255502001
9255508654
9255515429
9255521044
9255527819
9255536364
9255542528
9255547777
9255554919
9255561266
9255567309
9255573961
9255581225
9255587877
9255593981
9255599474
9255606432
9255612841
9255619982
9255627611
9255633165
9255639086
9255646837
9255652452
9255658495
9255665453
9255673876
9255679552
9255685594
9255692491
9255698351
9255705431
9255710741
9255719652
9255725878
9255730699
9255737535
9255743578
9255750719
9255756883
9255763963
9255775255
9255781236
9255788377
9255795335
9255800645
9255806932
9255814500
9255821519
9255828538
9255834520
9255839281
9255845872
9255852342
9255858201
9255865587
9255871690
9255877244
9255883470
9255889268
9255896776
9255902879
9255908860
9255913987
9255921312
9255927842
9255933152
9255939805
9255945115
9255951890
9255957261
9255965196
9255970628
9255977037
9255983995
9255989366
9255995469
9256000169
9256006516
9256012925
9256019090
9256023972
9256029405
9256034654
9256040757
9256047532
9256054307
9256060288
9256067490
9256073594
9256078538
9256084885
9256090989
9256096787
9256103623
9256110093
9256115342
9256122178
9256126939
9256133652
9256140244
9256146653
9256152878
9256157151
9256164353
9256169907
9256175400
9256179734
9256187790
9256193100
9256198472
9256204880
9256210312
9256216111
9256222031
9256227646
9256234909
9256239731
9256246872
9256251877
9256259140
9256266281
9256270859
9256279099
9256282212
9256290879
9256296860
9256301987
9256308212
9256314499
9256321335
9256327500
9256334824
9256340805
9256350021
9256356430
9256363205
9256370651
9256377121
9256384201
9256390732
9256396835
9256404587
9256410446
9256416672
9256423080
9256431015
9256437179
9256444504
9256450119
9256457382
9256463791
9256470993
9256477890
9256484421
9256488998
9256496200
9256502731
9256509140
9256514084
9256521286
9256529586
9256534408
9256542221
9256547164
9256554550
9256561386
9256567550
9256574813
9256581405
9256588424
9256594772
9256601364
9256607650
9256613510
9256621261
9256627487
9256633773
9256639449
9256647262
9256652328
9256660201
9256665572
9256671859
9256679488
9256689925
9256697616
9256703841
9256709823
9256716903
9256722518
9256730269
9256736800
9256744796
9256751388
9256757613
9256762557
9256769820
9256774947
9256782332
9256790023
9256796309
9256802169
9256808272
9256813216
9256821334
9256827742
9256835738
9256841597
9256848372
9256855025
9256859725
9256869002
9256873397
9256882552
9256887435
9256894210
9256900801
9256905745
9256914717
9256919783
9256929244
9256934248
9256941145
9256946089
9256955245
9256962080
9256969038
9256973006
9256985579
9256991682
9256998335
9257004805
9257011763
9257019392
9257025740
9257034407
9257040205
9257045515
9257052901
9257059248
9257064619
9257070051
9257077376
9257083296
9257090193
9257095808
9257102705
9257108076
9257114973
9257120649
9257127668
9257133833
9257139753
9257145796
9257150373
9257158796
9257163618
9257170393
9257175215
9257184675
9257189375
9257196394
9257202680
9257208723
9257213484
9257220625
9257228010
9257233930
9257239729
9257245771
9257251447
9257258833
9257264570
9257270368
9257276899
9257281782
9257288007
9257294294
9257299482
9257305830
9257310956
9257317182
9257324811
9257329755
9257335187
9257341230
9257346784
9257351850
9257358564
9257366315
9257370649
9257376935
9257383039
9257388288
9257394025
9257399213
9257405439
9257411237
9257417218
9257422590
9257428449
9257432782
9257440412
9257446332
9257452863
9257457990
9257464032
9257469525
9257475141
9257482160
9257487165
9257494245
9257500226
9257506452
9257512616
9257519452
9257524823
9257532269
9257538678
9257545209
9257551251
9257557965
9257563214
9257571088
9257576398
9257588055
9257594769
9257601361
9257607403
9257613629
9257619305
9257624066
9257631879
9257639874
9257646039
9257651776
9257658001
9257665021
9257671612
9257677899
9257684002
9257690411
9257696637
9257702923
9257710736
9257716351
9257722577
9257730267
9257737347
9257744549
9257750225
9257756146
9257763470
9257769696
9257775372
9257785076
9257789837
9257795757
9257803082
9257810040
9257816448
9257822491
9257827374
9257836773
9257841656
9257848675
9257855877
9257861980
9257866863
9257874126
9257880718
9257888592
9257893963
9257900188
9257907024
9257913677
9257921123
9257926433
9257932598
9257939739
9257945171
9257952556
9257958294
9257965496
9257972515
9257979046
9257986248
9257990947
9257999126
9258005230
9258011150
9258017437
9258023357
9258029644
9258037212
9258044048
9258051189
9258057659
9258062175
9258070171
9258076824
9258085308
9258090496
9258097820
9258103618
9258110637
9258116741
9258124065
9258130657
9258135600
9258143108
9258149089
9258156963
9258162273
9258170757
9258180278
9258188579
9258196941
9258203044
9258211528
9258215800
9258223674
9258231120
9258238383
9258243510
9258250651
9258255717
9258262919
9258269328
9258276591
9258283549
9258288981
9258295146
9258302409
9258308757
9258314860
9258321269
9258326030
9258333964
9258338542
9258345622
9258350322
9258357890
9258364299
9258370585
9258375224
9258384196
9258387187
9258395060
9258402445
9258408366
9258413798
9258419901
9258427226
9258433207
9258438639
9258444682
9258451334
9258457377
9258464091
9258470072
9258477213
9258483195
9258488627
9258496073
9258501078
9258509257
9258515665
9258521464
9258527079
9258533427
9258538614
9258545145
9258550211
9258556559
9258561747
9258569620
9258575113
9258579386
9258587504
9258593729
9258598795
9258605448
9258610392
9258615397
9258622721
9258628946
9258635050
9258640482
9258646158
9258651346
9258658487
9258665262
9258670938
9258677347
9258682291
9258688639
9258693521
9258699808
9258707376
9258711649
9258719400
9258724161
9258731058
9258736246
9258742838
9258749185
9258753641
9258761148
9258765848
9258774515
9258780130
9258788065
9258793924
9258803689
9258810953
9258817178
9258822549
9258829629
9258834817
9258841165
9258847635
9258853799
9258859781
9258865762
9258871805
9258879190
9258885598
9258892129
9258896951
9258905557
9258911233
9258917520
9258924966
9258931253
9258937905
9258944131
9258950662
9258956948
9258962991
9258969216
9258975015
9258982827
9258988626
9258996255
9259002114
9259009377
9259014565
9259021707
9259028176
9259034341
9259043069
9259049538
9259057229
9259062112
9259068703
9259075173
9259083291
9259088723
9259096352
9259101540
9259108559
9259111611
9259120705
9259126137
9259131814
9259139199
9259146096
9259151101
9259157692
9259162941
9259169594
9259175454
9259182656
9259190102
9259195168
9259203896
9259210305
9259215554
9259222023
9259227272
9259234169
9259241249
9259248757
9259253151
9259259499
9259265541
9259271828
9259276345
9259284279
9259291237
9259297341
9259302101
9259309364
9259316200
9259322487
9259329872
9259335976
9259343483
9259350136
9259356483
9259362404
9259366676
9259374245
9259385231
9259394813
9259403480
9259409950
9259418922
9259424171
9259433510
9259439613
9259445839
9259454262
9259461464
9259468422
9259474891
9259480201
9259487281
9259493873
9259500282
9259506691
9259511451
9259518898
9259523536
9259531471
9259535987
9259543373
9259547950
9259555397
9259562049
9259568214
9259572975
9259580360
9259586585
9259592689
9259599037
9259605018
9259612342
9259618385
9259623939
9259629981
9259636512
9259642555
9259649085
9259655006
9259660926
9259666969
9259674049
9259681556
9259687415
9259692847
9259699683
9259705237
9259712928
9259718421
9259724158
9259730994
9259736670
9259743690
9259749976
9259756141
9259762061
9259767737
9259773597
9259780066
9259785437
9259789649
9259796058
9259800269
9259810218
9259820349
9259836402
9259844092
9259851233
9259860449
9259868506
9259879004
9259887793
9259895484
9259901953
9259907752
9259913489
9259919592
9259927527
9259933691
9259939429
9259946143
9259951697
9259957434
9259963538
9259969336
9259976538
9259983069
9259989844
9259995947
9260002966
9260011145
9260016333
9260024267
9260027746
9260037146
9260042395
9260048071
9260054358
9260062658
9260068274
9260073340
9260078528
9260085180
9260091345
9260098059
9260104223
9260111181
9260116919
9260121496
9260128332
9260134985
9260141333
9260146215
9260156164
9260159460
9260168798
9260172094
9260181494
9260186743
9260192846
9260200475
9260208349
9260214941
9260220739
9260227758
9260233495
9260239599
9260246801
9260253271
9260259008
9260265234
9260272436
9260278295
9260285558
9260291723
9260297338
9260303747
9260310949
9260316381
9260323583
9260330907
9260337377
9260343297
9260349889
9260357519
9260364843
9260371129
9260376195
9260383275
9260390722
9260397069
9260402074
9260409887
9260416600
9260422826
9260429784
9260436071
9260441442
9260449132
9260455297
9260461522
9260467320
9260475194
9260481297
9260488255
9260493749
9260500890
9260508397
9260514256
9260520238
9260526891
9260532994
9260538426
9260546666
9260552403
9260559483
9260567418
9260573643
9260580724
9260587315
9260594029
9260601170
9260610081
9260616063
9260624425
9260630528
9260639683
9260646519
9260651951
9260661229
9260667637
9260673802
9260679783
9260687657
9260693089
9260701146
9260706089
9260713841
9260720372
9260726048
9260731846
9260739659
9260745945
9260751622
9260759434
9260765171
9260771336
9260778416
9260784580
9260791844
9260796909
9260803990
9260811497
9260816197
9260822544
9260829441
9260834324
9260841160
9260846592
9260853550
9260861423
9260866001
9260873692
9260880588
9260886570
9260891453
9260898594
9260905063
9260912693
9260917454
9260924961
9260929783
9260935764
9260942417
9260948398
9260955906
9260963352
9260967441
9260974765
9260980381
9260987522
9260992588
9260999363
9261006321
9261012790
9261018650
9261025669
9261033908
9261039585
9261046115
9261053134
9261059360
9261066745
9261071872
9261077121
9261083530
9261089694
9261096652
9261100925
9261107761
9261112644
9261119113
9261123630
9261130283
9261136325
9261142673
9261148410
9261154269
9261159579
9261165012
9261171542
9261176181
9261182956
9261188083
9261194186
9261201388
9261206637
9261213962
9261221042
9261231479
9261238070
9261242648
9261250155
9261255099
9261262851
9261269320
9261274814
9261280856
9261286837
9261292941
9261300021
9261305331
9261312350
9261319369
9261325778
9261331820
9261337802
9261342501
9261349093
9261356234
9261360812
9261367892
9261372653
9261381564
9261384799
9261393893
9261399508
9261405673
9261412142
9261419894
9261425204
9261431307
9261438143
9261444308
9261449862
9261457491
9261463839
9261471346
9261477084
9261484225
9261490023
9261495577
9261502474
9261508028
9261515291
9261522371
9261528963
9261535372
9261541964
9261546847
9261554964
9261559908
9261568819
9261573885
9261581392
9261586702
9261594332
9261599520
9261606539
9261614107
9261618868
9261627108
9261633821
9261639803
9261644991
9261652315
9261660250
9261667391
9261673372
9261679537
9261685945
9261692720
9261698641
9261705782
9261712007
9261717073
9261724825
9261732942
9261738008
9261744722
9261751131
9261760530
9261766328
9261772188
9261778108
9261785554
9261791292
9261798006
9261813447
9261819368
9261826692
9261834810
9261841707
9261851716
9261858308
9261865449
9261871675
9261874788
9261884431
9261887483
9261896028
9261902803
9261909822
9261915681
9261922334
9261927400
9261934114
9261940583
9261946809
9261953279
9261958222
9261965486
9261970918
9261977387
9261981965
9261990571
9261996674
9262004792
9262011506
9262018281
9262024567
9262029328
9262037812
9262043305
9262050629
9262056428
9262062958
9262068818
9262074738
9262081574
9262086884
9262094514
9262100007
9262107270
9262112824
9262118195
9262125214
9262132172
9262138825
9262143464
9262149994
9262156647
9262162323
9262168305
9262174103
9262181122
9262187958
9262193268
9262199921
9262206452
9262210602
9262217255
9262225251
9262230988
9262237335
9262243317
9262249420
9262254975
9262260163
9262265961
9262272919
9262278534
9262283173
9262289398
9262295380
9262300018
9262306244
9262313690
9262319794
9262324616
9262331451
9262336029
9262340851
9262346954
9262353668
9262359955
9262365204
9262370941
9262378082
9262383392
9262390839
9262398773
9262404693
9262413544
9262419098
9262424835
9262431976
9262437591
9262443207
9262449859
9262455414
9262462433
9262467926
9262474517
9262481292
9262485687
9262494049
9262499481
9262505035
9262511444
9262518585
9262524200
9262529205
9262535675
9262542266
9262547576
9262554412
9262559356
9262565887
9262572540
9262578887
9262586151
9262591522
9262599456
9262605132
9262611480
9262618072
9262624297
9262631133
9262637420
9262643584
9262651397
9262657989
9262663726
9262669158
9262676849
9262683562
9262693450
9262699615
9262707244
9262715301
9262721465
9262729888
9262736480
9262741790
9262748809
9262755278
9262761809
9262767363
9262772612
9262778533
9262787017
9262792876
9262798796
9262804534
9262808928
9262816497
9262821074
9262829985
9262836394
9262842070
9262847258
9262854277
9262859099
9262864714
9262872588
9262880156
9262885893
9262891142
9262897795
9262903166
9262909331
9262916350
9262924651
9262932890
9262939848
9262945525
9262952422
9262956938
9262964201
9262971953
9262983794
9262995939
9263004179
9263012114
9263018706
9263026640
9263033598
9263039641
9263046354
9263053068
9263060087
9263068510
9263074369
9263081083
9263088835
9263094816
9263102995
9263109892
9263115324
9263123991
9263132231
9263136869
9263144377
9263149626
9263156339
9263164579
9263170805
9263176786
9263183683
9263189665
9263196134
9263203520
9263208769
9263214811
9263220976
9263226774
9263235624
9263241239
9263247099
9263253080
9263259061
9263264677
9263270658
9263278654
9263283842
9263289579
9263296110
9263300748
9263307035
9263314176
9263320951
9263326993
9263331815
9263338224
9263345487
9263350065
9263357999
9263364042
9263369535
9263374723
9263380033
9263386563
9263392789
9263398343
9263404020
9263410306
9263416043
9263420560
9263428006
9263433072
9263437894
9263443814
9263449735
9263456815
9263460416
9263469266
9263473905
9263480130
9263487576
9263492276
9263500211
9263506619
9263512662
9263519986
9263525967
9263533536
9263537808
9263543057
9263550076
9263556485
9263562161
9263567593
9263573575
9263579617
9263584195
9263590603
9263596890
9263601285
9263608243
9263615506
9263620572
9263628079
9263634610
9263640286
9263646573
9263651150
9263658291
9263664761
9263672024
9263675930
9263682705
9263688443
9263694119
9263702114
9263709256
9263715359
9263722012
9263728176
9263734951
9263740628
9263747952
9263754482
9263759854
9263766873
9263774075
9263781948
9263788784
9263794644
9263801846
9263808437
9263813564
9263819424
9263826748
9263832058
9263839321
9263846706
9263852138
9263859829
9263864834
9263872951
9263879665
9263885586
9263892361
9263900417
9263906399
9263913112
9263920315
9263926235
9263933071
9263939785
9263945888
9263953273
9263959438
9263965847
9263974086
9263979702
9263986721
9263992824
9263999416
9264010463
9264016078
9264026882
9264033351
9264041713
9264048854
9264056911
9264063014
9264069728
9264078029
9264084926
9264093837
9264100795
9264106471
9264113429
9264120509
9264126796
9264134731
9264140712
9264147304
9264154445
9264160670
9264166713
9264174953
9264182521
9264189845
9264195643
9264202052
9264209071
9264215236
9264221827
9264228663
9264234950
9264242030
9264246608
9264253810
9264263148
9264269313
9264276942
9264284449
9264292018
9264299342
9264305201
9264312464
9264317958
9264324671
9264330958
9264336634
9264342799
9264348231
9264357569
9264363429
9264370448
9264376978
9264383570
9264390406
9264397364
9264402796
9264407313
9264414637
9264418726
9264425257
9264432337
9264437647
9264444483
9264450526
9264455897
9264462122
9264468531
9264475672
9264481592
9264487513
9264493799
9264503748
9264509363
9264515223
9264521387
9264528467
9264534083
9264540186
9264546290
9264553064
9264560022
9264566065
9264573877
9264580530
9264586145
9264592493
9264598535
9264604761
9264613550
9264618067
9264625147
9264631067
9264637171
9264643213
9264649439
9264653528
9264660364
9264667383
9264673853
9264680872
9264685693
9264691980
9264698145
9264703882
9264709924
9264715479
9264722742
9264728845
9264732812
9264739587
9264746240
9264750757
9264758081
9264764184
9264769556
9264776086
9264782312
9264789087
9264795434
9264802331
9264808496
9264814905
9264819787
9264826135
9264834741
9264840844
9264847619
9264855371
9264860864
9264867212
9264875329
9264881616
9264888696
9264895959
9264903039
9264911279
9264916772
9264923913
9264930749
9264937158
9264944970
9264951074
9264957787
9264964562
9264970300
9264976891
9264984765
9264991784
9264997704
9265005273
9265014062
9265019982
9265028405
9265033715
9265041528
9265050561
9265057030
9265065819
9265071740
9265080895
9265087914
9265094140
9265102318
9265108666
9265115319
9265122094
9265127343
9265134545
9265142479
9265148644
9265156395
9265163903
9265169518
9265176049
9265183983
9265190270
9265196862
9265201805
9265208641
9265216149
9265223168
9265230065
9265237206
9265243553
9265248436
9265254540
9265261559
9265268089
9265276940
9265283043
9265289940
9265293663
9265301720
9265306725
9265315086
9265321861
9265328209
9265335411
9265341820
9265349083
9265357140
9265364586
9265371971
9265377708
9265384666
9265392723
9265398887
9265407371
9265414085
9265420250
9265424766
9265430015
9265436729
9265442466
9265450401
9265456993
9265463035
9265467735
9265473777
9265479698
9265484397
9265491600
9265499168
9265506187
9265511863
9265518455
9265524497
9265530479
9265536399
9265543479
9265548789
9265556968
9265567222
9265572837
9265579307
9265585777
9265592307
9265598960
9265606590
9265613425
9265620261
9265627647
9265633872
9265641441
9265646445
9265654380
9265660422
9265666709
9265673301
9265679282
9265685691
9265691855
9265696677
9265703330
9265709495
9265715354
9265721213
9265725303
9265733298
9265739219
9265746116
9265752219
9265757285
9265763449
9265769797
9265775046
9265781150
9265787863
9265793235
9265799460
9265805136
9265812522
9265820700
9265825827
9265832663
9265839865
9265845969
9265851767
9265857321
9265864096
9265871115
9265875754
9265882956
9265888815
9265895468
9265902792
9265909262
9265914999
9265921164
9265927451
9265933798
9265938925
9265947775
9265952292
9265959738
9265966940
9265973227
9265978903
9265986777
9265994162
9266000021
9266006796
9266014425
9266020346
9266026266
9266031698
9266038961
9266044516
9266052755
9266058920
9266064596
9266072775
9266079550
9266085897
9266092794
9266099081
9266106466
9266115805
9266124349
9266131552
9266137899
9266146444
9266153951
9266160909
9266167501
9266175619
9266182272
9266187765
9266196127
9266203146
9266208883
9266216207
9266221700
9266228536
9266235677
9266241537
9266248617
9266253316
9266260763
9266266927
9266274068
9266280233
9266287374
9266294454
9266301046
9266307332
9266313863
9266319722
9266326314
9266333272
9266339803
9266346273
9266353414
9266359456
9266366414
9266372518
9266379049
9266387349
9266392781
9266399007
9266405904
9266411946
9266417440
9266425069
9266430440
9266438130
9266444661
9266450215
9266456380
9266463582
9266469197
9266476277
9266483724
9266489339
9266495992
9266501546
9266507405
9266514546
9266520467
9266528218
9266535969
9266541280
9266550435
9266555867
9266563130
9266570332
9266576497
9266585469
9266592793
9266597432
9266604024
9266610615
9266615376
9266621602
9266628499
9266634358
9266640278
9266647419
9266653401
9266658528
9266664387
9266670979
9266678974
9266683857
9266691304
9266696003
9266704853
9266710285
9266716145
9266724262
9266729695
9266735188
9266742695
9266749348
9266754963
9266761616
9266770161
9266776569
9266784321
9266789387
9266796650
9266802387
9266812763
9266818317
9266823811
9266830769
9266837055
9266842182
9266848041
9266854267
9266859455
9266865742
9266871601
9266878559
9266884113
9266888325
9266894855
9266900593
9266907490
9266914325
9266919330
9266925861
9266930866
9266937092
9266943378
9266948261
9266954670
9266961811
9266968219
9266973835
9266979633
9266985065
9266991107
9266996418
9267002521
9267009296
9267014911
9267019977
9267026935
9267032184
9267038471
9267045123
9267051288
9267057269
9267063068
9267069354
9267074909
9267080585
9267087543
9267094257
9267100726
9267106403
9267113177
9267119769
9267124164
9267131732
9267136676
9267144183
9267150287
9267157489
9267162250
9267168902
9267175983
9267180621
9267189776
9267195636
9267201495
9267207721
9267215106
9267220416
9267227191
9267233966
9267240313
9267246234
9267252459
9267260089
9267265582
9267271441
9267279193
9267286517
9267291827
9267298663
9267304644
9267310992
9267317401
9267324359
9267332110
9267338946
9267345843
9267352068
9267359820
9267368243
9267375445
9267384234
9267392230
9267399371
9267406573
9267411333
9267419878
9267425433
9267433794
9267440630
9267445391
9267452471
9267458941
9267465655
9267472429
9267478899
9267485979
9267491289
9267498858
9267505633
9267512041
9267519915
9267526568
9267532305
9267536821
9267542864
9267550066
9267556353
9267564714
9267571367
9267575335
9267584185
9267590837
9267597185
9267605059
9267611956
9267616960
9267624407
9267630571
9267637102
9267645708
9267655107
9267661150
9267668596
9267675432
9267681780
9267686296
9267693315
9267700090
9267706926
9267714922
9267719865
9267726762
9267734758
9267742143
9267749345
9267757158
9267765092
9267772294
9267778398
9267784807
9267791276
9267797136
9267802873
9267810197
9267816057
9267823381
9267830156
9267835344
9267842790
9267847612
9267852739
9267859330
9267867265
9267873490
9267879106
9267885209
9267891435
9267898820
9267906816
9267913835
9267921708
9267927629
9267934831
9267940934
9267947465
9267955094
9267960465
9267967851
9267972733
9267978227
9267983903
9267989457
9267996232
9268002885
9268008927
9268014054
9268018754
9268024064
9268031571
9268036637
9268043717
9268050248
9268054459
9268060685
9268068070
9268074235
9268079972
9268086197
9268091508
9268097245
9268103531
9268108719
9268115433
9268120804
9268127823
9268134476
9268138871
9268148880
9268155289
9268161148
9268167435
9268171524
9268179825
9268186661
9268191849
9268197037
9268204972
9268209549
9268215409
9268225479
9268230118
9268236954
9268244278
9268250443
9268255753
9268262283
9268267471
9268274674
9268281204
9268287186
9268293411
9268301285
9268307083
9268313492
9268318985
9268325760
9268333328
9268339981
9268346756
9268352554
9268359573
9268366409
9268372269
9268378372
9268385025
9268390762
9268398086
9268405716
9268412857
9268419937
9268427932
9268435989
9268442581
9268449295
9268455642
9268462295
9268468765
9268476394
9268482498
9268488174
9268494705
9268500930
9268507339
9268515762
9268521743
9268528884
9268534561
9268540481
9268547927
9268554031
9268561477
9268567886
9268575210
9268580581
9268586074
9268593276
9268601272
9268607497
9268615005
9268621169
9268627456
9268634292
9268640884
9268647842
9268655105
9268661819
9268667739
9268674026
9268680800
9268688369
9268694777
9268701674
9268708327
9268714248
9268720839
9268727675
9268733535
9268741591
9268745253
9268753798
9268759230
9268769179
9268774672
9268782729
9268791091
9268799269
9268807021
9268811965
9268823622
9268831679
9268836440
9268847365
9268852675
9268859511
9268869154
9268875197
9268882643
9268888808
9268894789
9268901320
9268907301
9268914259
9268920119
9268926344
9268933119
9268938002
9268946059
9268954603
9268963637
9268969618
9268976393
9268983534
9268991102
9268997389
9269005201
9269010634
9269014479
9269023451
9269029738
9269033583
9269041883
9269048109
9269054274
9269059156
9269064833
9269071852
9269076490
9269083570
9269090162
9269096937
9269103041
9269108656
9269112318
9269120008
9269127455
9269132093
9269137831
9269143751
9269149549
9269156873
9269162672
9269168287
9269173414
9269179823
9269185804
9269192335
9269198499
9269205640
