9195289997
9195294025
9195299519
9195304707
9195309040
9195313923
9195317768
9195322590
9195328144
9195333027
9195337177
9195342487
9195346943
9195351520
9195356098
9195360248
9195365375
9195370075
9195375324
9195380451
9195385334
9195390400
9195396320
9195402485
9195407856
9195413898
9195418842
9195423664
9195429218
9195436603
9195443744
9195448627
9195456684
9195461933
9195468341
9195477252
9195483844
9195492755
9195498371
9195506427
9195513446
9195522663
9195528461
9195536823
9195543720
9195551227
9195558856
9195566242
9195573383
9195581012
9195588336
9195594867
9195601337
9195608295
9195615070
9195623370
9195629596
9195636554
9195641376
9195650104
9195657733
9195664142
9195671832
9195678790
9195686908
9195692950
9195700519
9195705829
9195713397
9195722186
9195728778
9195735736
9195743792
9195751239
9195757708
9195767169
9195775103
9195781634
9195789935
9195795855
9195804339
9195810076
9195818865
9195826129
9195834368
9195839617
9195847552
9195854205
9195860552
9195869769
9195874834
9195882586
9195891009
9195897356
9195904009
9195912737
9195919817
9195927508
9195935320
9195940935
9195948626
9195956255
9195964861
9195971514
9195979876
9195986529
9195993914
9196001848
9196007402
9196015947
9196024309
9196031878
9196038530
9196045427
9196052080
9196060503
9196067583
9196075518
9196083452
9196090349
9196095537
9196104875
9196111589
9196118608
9196125200
9196133379
9196138994
9196146928
9196153093
9196160417
9196166032
9196174150
9196183000
9196189531
9196197771
9196204301
9196211320
9196219743
9196229875
9196236528
9196244768
9196251115
9196257829
9196264482
9196272477
9196280595
9196289079
9196295915
9196302568
9196310380
9196317155
9196323198
9196331559
9196339738
9196345292
9196354997
9196360551
9196367448
9196375321
9196381791
9196390275
9196398820
9196405473
9196412004
9196419267
9196426896
9196433366
9196441056
9196449296
9196456010
9196462479
9196472916
9196480912
9196489091
9196497147
9196505997
9196512284
9196520951
9196527177
9196536393
9196543351
9196552262
9196559342
9196568009
9196574601
9196583939
9196590226
9196599930
9196607987
9196615189
9196623978
9196631424
9196638871
9196645462
9196653214
9196662796
9196670426
9196678604
9196685990
9196693192
9196702164
9196710282
9196716934
9196727493
9196735123
9196742813
9196749710
9196758499
9196765396
9196772842
9196780899
9196788956
9196794571
9196802628
9196808853
9196817276
9196823196
9196832779
9196842117
9196849319
9196857925
9196863785
9196872635
9196880142
9196888870
9196897964
9196905227
9196912613
9196921890
9196929214
9196937210
9196946609
9196954361
9196961990
9196970962
9196978347
9196984573
9196993423
9197003066
9197010269
9197018264
9197027297
9197032729
9197041152
9197047561
9197054031
9197064712
9197072829
9197080093
9197086929
9197094070
9197100845
9197109817
9197117812
9197126418
9197135634
9197143569
9197150954
9197157607
9197164992
9197175490
9197182387
9197190322
9197199111
9197206679
9197213149
9197221328
9197228591
9197236525
9197242629
9197249709
9197256850
9197264296
9197271498
9197280348
9197288222
9197294814
9197301589
9197308608
9197316908
9197322707
9197331435
9197338698
9197346877
9197353529
9197360915
9197368910
9197376112
9197383009
9197391920
9197398878
9197406874
9197415297
9197423170
9197429457
9197437575
9197447462
9197454909
9197462172
9197470778
9197481276
9197487990
9197494764
9197503065
9197511854
9197517530
9197526564
9197532972
9197540541
9197547377
9197556288
9197562879
9197573255
9197581739
9197596083
9197606886
9197616224
9197623914
9197631422
9197638990
9197644361
9197653883
9197662428
9197669202
9197678602
9197686353
9197691968
9197700452
9197708387
9197715772
9197720960
9197729200
9197734998
9197740858
9197748670
9197755506
9197761304
9197768689
9197776197
9197781263
9197790601
9197797620
9197804944
9197811963
9197818738
9197824842
9197833692
9197840772
9197847974
9197854688
9197861280
9197867383
9197873731
9197881909
9197887769
9197894116
9197902234
9197908765
9197915112
9197920911
9197929212
9197936719
9197942517
9197950513
9197956067
9197964734
9197970410
9197976880
9197985242
9197992810
9197998120
9198004590
9198012463
9198018078
9198026501
9198035473
9198042065
9198048047
9198056042
9198063061
9198069226
9198074841
9198081799
9198090527
9198097424
9198103772
9198110485
9198117749
9198124524
9198131176
9198137951
9198145031
9198152050
9198160656
9198168652
9198176037
9198187512
9198195141
9198205273
9198211987
9198219799
9198227978
9198233654
9198242138
9198248180
9198257153
9198262402
9198271984
9198279491
9198286510
9198292797
9198299511
9198306103
9198313061
9198319408
9198328258
9198336315
9198343212
9198348583
9198354503
9198362987
9198369823
9198375683
9198382580
9198391491
9198398632
9198404003
9198410473
9198418346
9198428905
9198434887
9198446056
9198452831
9198460338
9198468517
9198475719
9198483959
9198491405
9198498058
9198505626
9198512523
9198521068
9198529369
9198536022
9198542003
9198549144
9198556285
9198561900
9198567210
9198572887
9198579539
9198584422
9198591869
9198599132
9198604137
9198611217
9198617808
9198623973
9198629100
9198635875
9198644420
9198649791
9198655955
9198662181
9198667735
9198673289
9198680369
9198687571
9198696360
9198704356
9198710337
9198716014
9198723704
9198731028
9198737315
9198742747
9198749400
9198755259
9198762461
9198767283
9198774607
9198780589
9198786387
9198791392
9198798228
9198805613
9198810679
9198818186
9198824290
9198829905
9198836192
9198841990
9198849558
9198854868
9198861765
9198866404
9198872630
9198877940
9198884226
9198888743
9198895212
9198900523
9198906809
9198913584
9198919016
9198924326
9198929453
9198937937
9198944651
9198950205
9198956003
9198962412
9198967112
9198973581
9198979075
9198986033
9198991221
9198997385
9199002512
9199008432
9199013742
9199019785
9199026865
9199031748
9199039316
9199045481
9199053659
9199060068
9199067636
9199073740
9199079538
9199085703
9199092233
9199098093
9199104990
9199110727
9199118051
9199123239
9199128061
9199135263
9199141245
9199146310
9199151437
9199158701
9199165353
9199172494
9199178781
9199183298
9199189279
9199195932
9199200998
9199208078
9199215402
9199220895
9199226571
9199233591
9199239328
9199244699
9199250436
9199256479
9199263620
9199270822
9199277780
9199283578
9199290292
9199295358
9199302621
9199310250
9199316110
9199322091
9199328439
9199334542
9199339303
9199346383
9199353097
9199359201
9199364205
9199371896
9199377267
9199384896
9199390267
9199398507
9199406930
9199411874
9199419442
9199427255
9199433175
9199438363
9199446786
9199453988
9199459420
9199464974
9199471627
9199477120
9199483712
9199489388
9199494942
9199504037
9199508675
9199515084
9199521004
9199528206
9199532967
9199538582
9199545235
9199552865
9199557992
9199566231
9199571480
9199577340
9199583260
9199589058
9199597359
9199602730
9199609505
9199614693
9199620125
9199627144
9199633858
9199640206
9199648690
9199653816
9199659310
9199666634
9199672310
9199679634
9199685799
9199694954
9199700997
9199706795
9199712349
9199718208
9199725166
9199730354
9199735909
9199743111
9199748970
9199754707
9199762581
9199767952
9199775093
9199781929
9199788765
9199794624
9199801094
9199806831
9199811775
9199817207
9199823616
9199828926
9199836494
9199841865
9199847664
9199852669
9199857795
9199864631
9199870063
9199875068
9199882576
9199889534
9199893989
9199899665
9199904426
9199910225
9199916511
9199922065
9199927070
9199931709
9199938179
9199944465
9199949653
9199958930
9199964607
9199970100
9199976814
9199984321
9199989448
9199997505
9200003303
9200009528
9200017646
9200023017
9200030219
9200036994
9200042121
9200048652
9200054389
9200059638
9200066230
9200072150
9200077338
9200083320
9200088264
9200095893
9200101264
9200108222
9200112617
9200119208
9200125312
9200130927
9200136542
9200143622
9200149787
9200156440
9200163276
9200169196
9200176093
9200183112
9200187812
9200195014
9200200629
9200207526
9200212958
9200219977
9200227484
9200233161
9200238349
9200244574
9200253302
9200259223
9200265204
9200273566
9200278815
9200284186
9200291083
9200298834
9200303961
9200311408
9200317816
9200325629
9200331122
9200336432
9200344000
9200349371
9200357001
9200363593
9200369818
9200377081
9200382880
9200389532
9200395575
9200402594
9200408636
9200415167
9200421698
9200426336
9200434271
9200441473
9200447149
9200453619
9200462164
9200467169
9200475103
9200480719
9200488348
9200495672
9200501654
9200508184
9200515142
9200523260
9200528631
9200537298
9200546881
9200553472
9200562078
9200567816
9200574224
9200581121
9200587652
9200596258
9200602056
9200608953
9200614690
9200621648
9200627325
9200633855
9200641180
9200647466
9200654729
9200660772
9200666265
9200672369
9200679510
9200685552
9200691045
9200699346
9200704107
9200711797
9200718206
9200724370
9200729131
9200737127
9200741948
9200749151
9200755498
9200763372
9200769109
9200775335
9200782110
9200788213
9200795354
9200801580
9200807988
9200814031
9200820378
9200826726
9200834172
9200841008
9200847844
9200854680
9200862065
9200868901
9200874822
9200881474
9200888432
9200894292
9200900090
9200907597
9200912663
9200918584
9200925481
9200931401
9200937932
9200943913
9200949345
9200957036
9200962834
9200969487
9200975713
9200980168
9200988103
9200995244
9201002446
9201008855
9201014104
9201020390
9201025639
9201030949
9201037907
9201046269
9201051091
9201058232
9201063054
9201070439
9201075627
9201081486
9201088749
9201095097
9201099492
9201106572
9201111699
9201117558
9201122807
9201132634
9201138005
9201144596
9201151127
9201156559
9201163456
9201169071
9201177921
9201183109
9201190312
9201195255
9201200504
9201208256
9201213688
9201220219
9201225712
9201232426
9201237919
9201244144
9201249393
9201254887
9201260136
9201265995
9201272648
9201277531
9201283451
9201288273
9201294071
9201298710
9201305118
9201310306
9201316776
9201322147
9201328495
9201333683
9201338627
9201345096
9201349857
9201356876
9201362247
9201368351
9201373600
9201379642
9201385807
9201390262
9201397342
9201403202
9201409793
9201414615
9201421146
9201425846
9201432437
9201438114
9201444705
9201451358
9201456485
9201463687
9201469242
9201474979
9201481693
9201489200
9201495120
9201502750
9201509097
9201516544
9201522403
9201529971
9201535770
9201542667
9201549625
9201554568
9201561282
9201567020
9201572635
9201582034
9201588931
9201595279
9201600345
9201607791
9201613162
9201621036
9201628482
9201633121
9201641665
9201646670
9201654300
9201659793
9201665835
9201672305
9201679873
9201684817
9201691958
9201698367
9201705691
9201711123
9201719302
9201729739
9201734683
9201743045
9201748782
9201757144
9201763919
9201769900
9201777346
9201782900
9201789797
9201795291
9201802065
9201807681
9201816287
9201821291
9201829470
9201834231
9201841860
9201846621
9201854067
9201859011
9201865603
9201874697
9201881045
9201886538
9201894167
9201900332
9201906618
9201913515
9201919741
9201925966
9201932131
9201938906
9201945131
9201951174
9201957338
9201963808
9201969973
9201977846
9201986879
9201993959
9201998903
9202006288
9202013674
9202019777
9202024721
9202032045
9202036928
9202044802
9202052126
9202058840
9202064272
9202072206
9202080690
9202088930
9202095033
9202101747
9202108705
9202114992
9202120729
9202128236
9202134035
9202140749
9202145937
9202150941
9202159120
9202165163
9202171266
9202176942
9202182985
9202189210
9202194887
9202200258
9202207582
9202212465
9202219301
9202225770
9202232606
9202238160
9202243409
9202250612
9202256654
9202262330
9202268617
9202275636
9202280946
9202287538
9202293519
9202298219
9202306581
9202313111
9202319337
9202324708
9202332399
9202337648
9202345399
9202351197
9202356996
9202362306
9202369569
9202375611
9202381471
9202386964
9202393800
9202399842
9202404725
9202410890
9202417237
9202424073
9202429871
9202435242
9202441102
9202446412
9202451661
9202458436
9202463990
9202469483
9202475281
9202480775
9202486207
9202492982
9202498414
9202505189
9202510621
9202516846
9202521790
9202528565
9202533753
9202540589
9202546204
9202552430
9202558289
9202565186
9202570740
9202576844
9202582337
9202588196
9202595154
9202600953
9202606140
9202612976
9202619629
9202623780
9202631104
9202636292
9202642823
9202649781
9202654053
9202659668
9202666138
9202672363
9202679627
9202686829
9202692322
9202698364
9202705750
9202711975
9202717407
9202723694
9202732422
9202738098
9202744934
9202750671
9202756836
9202764709
9202770508
9202777710
9202783874
9202789673
9202797058
9202801880
9202809692
9202815735
9202821045
9202830139
9202834839
9202842834
9202849060
9202854797
9202859741
9202868652
9202874084
9202881714
9202887146
9202893615
9202900451
9202907348
9202914245
9202923034
9202929931
9202940551
9202947021
9202953491
9202962036
9202967529
9202974731
9202981140
9202988708
9202995239
9203000854
9203007873
9203013488
9203020263
9203027404
9203032409
9203039611
9203045959
9203051513
9203059569
9203064452
9203072021
9203076964
9203083251
9203090392
9203096190
9203103759
9203109862
9203114745
9203123168
9203128173
9203135558
9203142089
9203149047
9203156554
9203162719
9203167907
9203175658
9203182311
9203187804
9203194762
9203200255
9203207274
9203212767
9203219786
9203225218
9203232238
9203237914
9203245360
9203251036
9203257384
9203265074
9203271178
9203277587
9203285704
9203292357
9203299498
9203307616
9203315245
9203320555
9203327452
9203335936
9203342833
9203347838
9203355589
9203361754
9203367674
9203374510
9203380369
9203386473
9203392393
9203398680
9203404661
9203411375
9203417235
9203422362
9203429625
9203435179
9203442747
9203448851
9203454039
9203459471
9203466124
9203471495
9203479918
9203485716
9203491636
9203497435
9203503294
9203510557
9203515684
9203523374
9203529966
9203536131
9203543699
9203550962
9203557249
9203562010
9203569883
9203577513
9203585386
9203591490
9203597654
9203602598
9203609251
9203613828
9203620481
9203626707
9203631712
9203637876
9203642576
9203649961
9203654233
9203660703
9203666746
9203673276
9203679014
9203684019
9203690183
9203694883
9203699827
9203706357
9203713682
9203718015
9203723264
9203729551
9203736204
9203741758
9203747312
9203754087
9203759885
9203765561
9203771482
9203778012
9203784970
9203790403
9203796506
9203804013
9203809446
9203815793
9203822873
9203827634
9203834958
9203841062
9203846738
9203853147
9203860471
9203866269
9203872006
9203879270
9203885434
9203891782
9203897580
9203904111
9203910886
9203917966
9203924985
9203930722
9203937619
9203943784
9203950558
9203956479
9203961423
9203968991
9203974301
9203982052
9203988888
9203995541
9204001340
9204008847
9204016110
9204021969
9204028744
9204036252
9204042233
9204047177
9204054562
9204060360
9204067624
9204074765
9204081051
9204088620
9204098141
9204107724
9204113095
9204120968
9204127743
9204134030
9204143917
9204149960
9204157406
9204163326
9204169430
9204177059
9204182491
9204188595
9204196713
9204202938
9204207577
9204216244
9204221859
9204229305
9204235531
9204243710
9204249630
9204256771
9204262813
9204269100
9204275326
9204281307
9204288936
9204295955
9204301449
9204308651
9204314327
9204320736
9204327877
9204335628
9204342891
9204347835
9204355892
9204362484
9204369259
9204375972
9204383297
9204388729
9204395626
9204402767
9204408504
9204416072
9204424007
9204431697
9204437374
9204445186
9204451351
9204458858
9204465083
9204472164
9204479060
9204485408
9204493099
9204498958
9204506343
9204513606
9204521053
9204530147
9204536372
9204543758
9204549312
9204553889
9204561153
9204567317
9204573909
9204580318
9204587215
9204593074
9204598140
9204605464
9204612666
9204619258
9204625056
9204631038
9204637019
9204644160
9204651729
9204658992
9204666499
9204673213
9204680659
9204689936
9204696711
9204703913
9204711055
9204717341
9204725703
9204730830
9204737788
9204744746
9204749995
9204756709
9204761286
9204768122
9204772822
9204779597
9204785212
9204791743
9204796809
9204803034
9204808894
9204813837
9204819941
9204826838
9204832331
9204838862
9204844111
9204850336
9204856135
9204861750
9204867243
9204872736
9204879755
9204884516
9204891230
9204897639
9204902460
9204908320
9204914789
9204920466
9204925409
9204930658
9204937067
9204944147
9204948603
9204953730
9204961237
9204967157
9204974298
9204981134
9204986567
9204993586
9204998529
9205005609
9205011286
9205016535
9205022516
9205028986
9205034174
9205040644
9205046137
9205052789
9205058161
9205063410
9205071771
9205076410
9205083246
9205089777
9205095575
9205102472
9205108759
9205115350
9205123102
9205128229
9205135187
9205142267
9205148370
9205154657
9205160760
9205168878
9205174188
9205181268
9205187311
9205195001
9205201349
9205207269
9205213739
9205219842
9205226617
9205232538
9205238275
9205247125
9205253717
9205259759
9205269525
9205276422
9205283075
9205289422
9205297479
9205303155
9205311639
9205318292
9205325189
9205330499
9205337701
9205343194
9205350396
9205356072
9205361749
9205368279
9205375482
9205382745
9205387689
9205393609
9205400811
9205406854
9205412530
9205420403
9205425286
9205433404
9205440301
9205446465
9205451409
9205459405
9205465935
9205472344
9205479424
9205485528
9205492486
9205498772
9205504326
9205510552
9205518364
9205525933
9205530266
9205537896
9205542656
9205550347
9205555535
9205561638
9205568474
9205574456
9205580498
9205588127
9205594170
9205599663
9205606316
9205613579
9205619194
9205626030
9205632866
9205639763
9205645928
9205650810
9205658135
9205665398
9205671745
9205677178
9205685661
9205692375
9205699089
9205704338
9205711967
9205717522
9205727165
9205733635
9205740410
9205745537
9205752556
9205759880
9205765983
9205772514
9205779777
9205784782
9205790703
9205797294
9205803703
9205808403
9205815239
9205822380
9205826896
9205833793
9205840446
9205846122
9205852531
9205857841
9205864555
9205871818
9205878227
9205886467
9205893180
9205898613
9205905448
9205911613
9205919792
9205927970
9205933769
9205940605
9205947379
9205951774
9205958671
9205965263
9205971427
9205976676
9205981559
9205987052
9205993461
9205998771
9206005241
9206013358
9206017997
9206024772
9206029227
9206036124
9206042106
9206048637
9206053825
9206059989
9206066093
9206070365
9206075858
9206082084
9206087577
9206094840
9206100272
9206106681
9206112174
9206117850
9206123221
9206129630
9206134940
9206141532
9206148368
9206154166
9206160514
9206165397
9206171683
9206176322
9206183158
9206190787
9206196341
9206202201
9206208121
9206214896
9206219901
9206226370
9206231314
9206236746
9206245169
9206250235
9206255667
9206261527
9206268240
9206274893
9206280264
9206285330
9206293265
9206298697
9206304739
9206310294
9206317801
9206323538
9206331412
9206337210
9206343314
9206350882
9206356924
9206362479
9206369620
9206375052
9206381521
9206388663
9206394278
9206401541
9206408499
9206415823
9206422110
9206427054
9206434561
9206441885
9206448233
9206455374
9206462088
9206469839
9206477468
9206483023
9206491507
9206496817
9206505239
9206511831
9206518240
9206525076
9206532705
9206538992
9206545767
9206551992
9206558584
9206564626
9206570974
9206578664
9206583669
9206591482
9206597280
9206603506
9206610464
9206618276
9206625173
9206630666
9206637563
9206643056
9206650442
9206655874
9206662343
9206669424
9206674734
9206681753
9206686757
9206695058
9206701528
9206706533
9206714162
9206718984
9206727407
9206732595
9206738698
9206745473
9206751516
9206756276
9206763478
9206770559
9206776601
9206783681
9206789785
9206796376
9206802419
9206808766
9206814931
9206821279
9206828786
9206834828
9206840871
9206846120
9206853871
9206859609
9206865834
9206874806
9206880666
9206887074
9206894093
9206900441
9206905873
9206912648
9206920949
9206927968
9206934010
9206941334
9206947804
9206955006
9206961415
9206969655
9206976185
9206983204
9206991200
9206998036
9207003834
9207009266
9207016957
9207022938
9207030140
9207036549
9207041188
9207047841
9207054005
9207059498
9207063954
9207071644
9207078053
9207085926
9207090992
9207096546
9207103443
9207109059
9207115650
9207121693
9207129811
9207135121
9207143665
9207149342
9207154957
9207160999
9207166493
9207173634
9207181019
9207187672
9207194325
9207199451
9207206898
9207214100
9207219715
9207226429
9207231739
9207238148
9207243214
9207251148
9207256885
9207263843
9207269276
9207275440
9207280933
9207287342
9207293445
9207299793
9207306202
9207311573
9207317920
9207323414
9207329151
9207334705
9207340931
9207346363
9207353748
9207358936
9207364185
9207369983
9207374988
9207380237
9207385181
9207391284
9207399280
9207403858
9207408863
9207415454
9207420520
9207425159
9207431507
9207437488
9207443103
9207448230
9207454761
9207460681
9207465503
9207471912
9207477039
9207483753
9207490894
9207496082
9207501575
9207506824
9207513171
9207518420
9207524097
9207530872
9207536487
9207543933
9207551745
9207556628
9207565356
9207573352
9207579455
9207584826
9207591907
9207597644
9207602710
9207608264
9207613879
9207622363
9207630298
9207634692
9207641528
9207648425
9207653613
9207661914
9207667651
9207676745
9207683093
9207689501
9207696582
9207702929
9207710009
9207716113
9207724719
9207731371
9207737780
9207742358
9207750598
9207757189
9207762927
9207768847
9207776232
9207781176
9207786791
9207793200
9207798998
9207805163
9207811022
9207819079
9207825854
9207830553
9207837145
9207842455
9207849047
9207854052
9207861010
9207866137
9207872057
9207878283
9207885119
9207891100
9207895739
9207903368
9207908434
9207917894
9207923571
9207929430
9207935595
9207941515
9207948412
9207954332
9207961657
9207967089
9207973497
9207978685
9207984056
9207991259
9207997118
9208002428
9208009630
9208016832
9208022203
9208028795
9208034044
9208040636
9208044725
9208051683
9208059679
9208064989
9208070665
9208077013
9208082811
9208089281
9208095506
9208102342
9208108812
9208116014
9208122179
9208127367
9208134080
9208138902
9208146715
9208152269
9208161241
9208167589
9208173814
9208178819
9208186509
9208193712
9208199876
9208207078
9208213243
9208220079
9208225328
9208231492
9208236863
9208242662
9208248155
9208256272
9208262254
9208268968
9208275621
9208281480
9208286668
9208292344
9208299668
9208307908
9208313584
9208319383
9208326646
9208332627
9208338548
9208345017
9208349900
9208357224
9208363267
9208368760
9208374497
9208380174
9208384812
9208391770
9208398667
9208404771
9208409531
9208416184
9208423203
9208428574
9208433640
9208440720
9208447251
9208452378
9208459092
9208464524
9208470322
9208475266
9208482285
9208487839
9208493882
9208499924
9208504380
9208510178
9208514878
9208521042
9208525620
9208532212
9208537400
9208542893
9208547776
9208553513
9208558579
9208566513
9208571335
9208577317
9208582505
9208590256
9208596298
9208601914
9208607285
9208613510
9208619004
9208624924
9208629257
9208635300
9208640061
9208646896
9208653916
9208660141
9208665512
9208671127
9208677597
9208683273
9208688644
9208695419
9208700912
9208706955
9208711960
9208717270
9208723434
9208728805
9208733932
9208742660
9208747665
9208754257
9208759323
9208764755
9208771774
9208778244
9208786300
9208792404
9208798996
9208804245
9208810348
9208815658
9208823044
9208828720
9208838607
9208846176
9208852829
9208858017
9208865646
9208872360
9208878585
9208886764
9208894943
9208900558
9208906234
9208911117
9208918258
9208923141
9208930343
9208935592
9208943282
9208949142
9208954391
9208961349
9208966598
9208972030
9208978988
9208986373
9208991378
9208996688
9209004317
9209010970
9209017501
9209023177
9209029830
9209035567
9209042464
9209048385
9209053756
9209060958
9209065780
9209073226
9209080123
9209087386
9209092879
9209098128
9209104659
9209109786
9209116256
9209121932
9209130477
9209135054
9209141585
9209147994
9209153670
9209158065
9209165999
9209171126
9209178572
9209184676
9209190535
9209196334
9209202132
9209208296
9209214095
9209222457
9209227889
9209233626
9209240157
9209247603
9209252242
9209259932
9209264998
9209272627
9209279341
9209284956
9209290999
9209296553
9209301985
9209308150
9209316878
9209323592
9209331587
9209337935
9209344710
9209352644
9209359663
9209366011
9209373640
9209379866
9209386274
9209393538
9209400557
9209405501
9209412214
9209418013
9209426741
9209433882
9209440840
9209447126
9209452864
9209459883
9209465559
9209472639
9209480757
9209487593
9209495100
9209503828
9209510725
9209516523
9209524092
9209529707
9209536726
9209543745
9209549665
9209555158
9209561262
9209568464
9209573957
9209580793
9209585615
9209591962
9209597028
9209603437
9209610334
9209614973
9209621870
9209627790
9209632795
9209638898
9209644025
9209649824
9209654767
9209661237
9209667341
9209672223
9209678144
9209682660
9209688581
9209694501
9209700177
9209706769
9209711713
9209718122
9209722577
9209728864
9209732892
9209739362
9209746808
9209751996
9209757428
9209762067
9209767377
9209773603
9209780255
9209786420
9209792890
9209797650
9209803998
9209808270
9209814801
9209819623
9209825849
9209833295
9209837628
9209844220
9209849652
9209854901
9209860516
9209865704
9209871198
9209878217
9209884320
9209889691
9209896344
9209903302
9209908673
9209913190
9209921063
9209926190
9209933087
9209939496
9209945782
9209950116
9209956952
9209965252
9209970807
9209978741
9209983807
9209989666
9209996441
9210004437
9210010540
9210018902
9210024579
9210032086
9210040081
9210044781
9210052838
9210061138
9210068768
9210075543
9210081036
9210087628
9210092816
9210099774
9210105206
9210112957
9210117901
9210123699
9210129070
9210135113
9210141705
9210146771
9210155865
9210161907
9210168255
9210173870
9210180401
9210186260
9210192669
9210198406
9210206097
9210211529
9210218059
9210223247
9210230144
9210235271
9210241802
9210247417
9210253643
9210261089
9210266704
9210273601
9210278850
9210285747
9210291668
9210298443
9210304485
9210311504
9210317363
9210323772
9210329570
9210334880
9210342205
9210349163
9210355083
9210360271
9210368206
9210374797
9210381999
9210388896
9210396953
9210403362
9210410198
9210416118
9210421489
9210427287
9210431804
9210440471
9210446086
9210453716
9210459270
9210466899
9210473369
9210480632
9210488139
9210493755
9210503703
9210509502
9210516460
9210523967
9210530681
9210536784
9210543437
9210550944
9210557536
9210564494
9210571208
9210577861
9210584331
9210589702
9210595927
9210603434
9210610026
9210618449
9210625163
9210631511
9210640055
9210647502
9210653788
9210659770
9210667338
9210673747
9210679911
9210687297
9210691996
9210698710
9210706339
9210712138
9210717448
9210723979
9210729777
9210736369
9210741313
9210746684
9210755595
9210760416
9210768046
9210773112
9210778788
9210783183
9210790202
9210796366
9210803568
9210808756
9210815714
9210821024
9210826639
9210831705
9210838724
9210845194
9210851969
9210856547
9210862406
9210867350
9210873209
9210880045
9210884745
9210891092
9210896036
9210902445
9210906900
9210913309
9210917826
9210924295
9210931253
9210936380
9210941568
9210947672
9210953409
9210958719
9210963846
9210969522
9210976053
9210982035
9210987039
9210991922
9210998270
9211003031
9211009622
9211014688
9211021280
9211027139
9211031168
9211038553
9211043192
9211049539
9211055032
9211060526
9211067361
9211075235
9211080667
9211087198
9211094522
9211101419
9211107217
9211113321
9211120157
9211125162
9211131265
9211136758
9211144571
9211150064
9211156839
9211162210
9211168191
9211173623
9211180032
9211185647
9211192239
9211201028
9211206949
9211214456
9211220803
9211228067
9211234231
9211241677
9211249917
9211257119
9211263894
9211270059
9211275369
9211283242
9211289468
9211296670
9211302529
9211309548
9211315530
9211322122
9211328103
9211335122
9211341409
9211347939
9211353982
9211359780
9211367349
9211373330
9211381081
9211387490
9211395608
9211401650
9211408730
9211415200
9211421731
9211427468
9211435219
9211441933
9211446999
9211454140
9211461342
9211467507
9211474343
9211481850
9211487404
9211496438
9211502053
9211509072
9211514809
9211522988
9211529091
9211537026
9211541603
9211548989
9211556374
9211563698
9211571022
9211578530
9211582863
9211590798
9211597023
9211602638
9211610268
9211616982
9211622414
9211629006
9211636269
9211642189
9211649635
9211657265
9211664040
9211670021
9211677223
9211682655
9211690773
9211697609
9211705666
9211712807
9211720375
9211727882
9211733070
9211741676
9211750404
9211758644
9211764503
9211778358
9211785743
9211795204
9211802101
9211815590
9211823585
9211828895
9211838539
9211845130
9211851112
9211857460
9211863441
9211869728
9211877174
9211881751
9211889137
9211893592
9211900978
9211907569
9211912818
9211919593
9211924903
9211929969
9211937354
9211943031
9211950111
9211956519
9211962013
9211968726
9211974158
9211979774
9211986793
9211992835
9211998328
9212005225
9212012000
9212017493
9212024390
9212029578
9212037086
9212043006
9212050635
9212056556
9212063148
9212068946
9212074317
9212081092
9212086341
9212091956
9212098548
9212104651
9212110144
9212116004
9212122718
9212127539
9212134681
9212139502
9212145545
9212151160
9212157813
9212163001
9212168738
9212175269
9212180640
9212186926
9212193091
9212197363
9212204627
9212209387
9212215979
9212223670
9212228797
9212233984
9212238928
9212246924
9212252905
9212258093
9212264807
9212269873
9212276160
9212282568
9212287939
9212294897
9212300452
9212307104
9212314246
9212320288
9212325293
9212332739
9212338782
9212345129
9212352026
9212358374
9212365088
9212371435
9212378088
9212384253
9212391577
9212397009
9212408728
9212412878
9212419897
9212425940
9212432837
9212438269
9212445471
9212451391
9212458593
9212463903
9212471105
9212476599
9212483740
9212489599
9212496862
9212504064
9212508825
9212516943
9212523107
9212529150
9212535253
9212541357
9212548315
9212555578
9212561865
9212569555
9212575842
9212582067
9212589208
9212595678
9212601537
9212609350
9212615026
9212621191
9212626989
9212634801
9212639928
9212647863
9212653356
9212660985
9212667943
9212673498
9212679967
9212685582
9212693334
9212698888
9212706945
9212711950
9212718053
9212725194
9212732213
9212739171
9212745336
9212750219
9212757421
9212765355
9212771459
9212777135
9212783299
9212790624
9212796788
9212803563
9212809789
9212815648
9212823522
9212828587
9212834752
9212842076
9212848241
9212855504
9212861546
9212869298
9212874913
9212880528
9212888219
9212894383
9212901524
9212907811
9212913487
9212919652
9212926793
9212933201
9212939854
9212946019
9212953282
9212959935
9212967503
9212975255
9212982457
9212989903
9212996861
9213003331
9213009922
9213020726
9213027012
9213034764
9213041844
9213049534
9213058445
9213063755
9213071141
9213079319
9213084873
9213090061
9213096897
9213102757
9213110203
9213116245
9213122959
9213129246
9213136265
9213142246
9213147801
9213153843
9213161411
9213167271
9213172764
9213180088
9213184849
9213192173
9213196995
9213204441
9213209568
9213216892
9213222385
9213229221
9213235020
9213240391
9213246860
9213253818
9213259434
9213266392
9213270908
9213277805
9213283909
9213291355
9213297397
9213303928
9213309970
9213316562
9213322361
9213328952
9213334812
9213340732
9213346164
9213352024
9213358860
9213365146
9213370029
9213376438
9213381381
9213387912
9213392307
9213399997
9213405307
9213410617
9213415988
9213422885
9213427890
9213435031
9213440341
9213444980
9213451328
9213458225
9213463412
9213468661
9213475314
9213480563
9213486850
9213493381
9213497653
9213505099
9213509921
9213516513
9213521579
9213528537
9213533664
9213540011
9213545077
9213552707
9213558749
9213565402
9213576144
9213582736
9213589450
9213595675
9213602450
9213608676
9213615939
9213622103
9213630160
9213635226
9213641024
9213647555
9213652865
9213660067
9213667086
9213673617
9213679843
9213686556
9213692843
9213700228
9213706637
9213712863
9213720431
9213725802
9213733492
9213739657
9213745211
9213750948
9213758700
9213765475
9213772311
9213776949
9213783602
9213789034
9213795504
9213800143
9213806979
9213814181
9213822298
9213829012
9213835482
9213841402
9213847811
9213854769
9213860994
9213867891
9213875277
9213881258
9213886934
9213892611
9213900057
9213905916
9213913057
9213918612
9213925264
9213930757
9213937471
9213942537
9213950716
9213956941
9213964571
9213971102
9213977327
9213986727
9213992647
9213998140
9214005220
9214012178
9214017732
9214024751
9214030000
9214036348
9214044405
9214052156
9214057283
9214063448
9214070161
9214077791
9214083589
9214089082
9214097505
9214102388
9214110383
9214115755
9214121797
9214128572
9214134431
9214141145
9214148775
9214154573
9214162996
9214170137
9214176179
9214183076
9214191316
9214197236
9214208101
9214216401
9214221650
9214229951
9214236787
9214243989
9214249787
9214257173
9214261872
9214269258
9214275361
9214282563
9214286836
9214294099
9214302949
9214308015
9214314423
9214321870
9214327912
9214332673
9214340669
9214345551
9214353547
9214358674
9214364594
9214372102
9214378510
9214384431
9214390534
9214397248
9214403229
9214409821
9214415742
9214422150
9214428193
9214434540
9214440583
9214446381
9214453766
9214459687
9214465912
9214471833
9214479401
9214485932
9214492829
9214497834
9214504853
9214512299
9214516999
9214523774
9214530182
9214536286
9214542755
9214548798
9214555146
9214561249
9214567963
9214573822
9214579376
9214584870
9214591522
9214596832
9214603241
9214608734
9214614594
9214624848
9214630280
9214636566
9214641876
9214648346
9214654022
9214660126
9214666595
9214670990
9214677948
9214683197
9214689484
9214695282
9214702606
9214708038
9214712250
9214719879
9214727081
9214732696
9214738251
9214743744
9214750702
9214755707
9214761688
9214768890
9214777557
9214785553
9214792511
9214798919
9214805267
9214813079
9214821136
9214828338
9214833831
9214840545
9214845672
9214852203
9214859588
9214866119
9214871856
9214878570
9214884307
9214890716
9214896331
9214901885
9214909210
9214916778
9214922454
9214928497
9214935699
9214942046
9214947601
9214954009
9214961517
9214967315
9214974883
9214981109
9214987762
9214993987
9214998931
9215005340
9215012603
9215018950
9215026275
9215032622
9215039641
9215046172
9215051543
9215059356
9215065154
9215072905
9215078154
9215084258
9215091033
9215097197
9215104461
9215110808
9215118377
9215124419
9215130767
9215137053
9215143340
9215151213
9215157012
9215163359
9215171294
9215177031
9215183562
9215190886
9215196135
9215203398
9215209258
9215216643
9215222441
9215230315
9215236723
9215241789
9215250151
9215255949
9215262236
9215267912
9215278044
9215284087
9215291594
9215297331
9215304533
9215311247
9215316008
9215324003
9215330778
9215336394
9215342741
9215348295
9215353361
9215359038
9215366423
9215374174
9215380461
9215388639
9215395842
9215403532
9215410185
9215418852
9215425749
9215432524
9215438871
9215444914
9215453215
9215461027
9215468412
9215474333
9215481291
9215486967
9215491361
9215498869
9215503446
9215509550
9215515043
9215523710
9215529691
9215535490
9215542631
9215548490
9215553983
9215559599
9215565824
9215573698
9215581205
9215586271
9215592679
9215599576
9215605375
9215613492
9215619230
9215625760
9215631681
9215637845
9215643644
9215649076
9215654935
9215659513
9215667203
9215673612
9215679532
9215685209
9215691129
9215698331
9215704374
9215710782
9215716764
9215723233
9215729154
9215735379
9215741422
9215746854
9215752774
9215761624
9215766812
9215771756
9215779202
9215785306
9215790738
9215797513
9215802945
9215812344
9215815457
9215824368
9215829739
9215836392
9215841336
9215847989
9215855008
9215860867
9215866238
9215872281
9215878812
9215884610
9215889737
9215895352
9215901639
9215908230
9215912564
9215920010
9215924405
9215931607
9215937527
9215942898
9215949307
9215954068
9215960171
9215966153
9215971890
9215979275
9215988736
9215996365
9216002957
9216009121
9216014492
9216020413
9216027188
9216037381
9216043179
9216048489
9216055630
9216060391
9216067410
9216074368
9216081448
9216086086
9216093228
9216098599
9216105190
9216110195
9216116787
9216123623
9216128262
9216135525
9216142056
9216147793
9216152370
9216159206
9216166225
9216172451
9216179775
9216186062
9216191982
9216198330
9216206264
9216213466
9216219082
9216226711
9216234035
9216240261
9216246853
9216254116
9216260830
9216266994
9216273891
9216280971
9216286403
9216291957
9216300869
9216305690
9216312954
9216320461
9216326564
9216332180
9216338466
9216343593
9216351222
9216357875
9216365627
9216371120
9216378932
9216385402
9216391567
9216397304
9216403346
9216409084
9216416652
9216422572
9216428615
9216434840
9216440639
9216445888
9216452968
9216459010
9216464198
9216472438
9216478236
9216483790
9216490504
9216496059
9216502772
9216508266
9216515773
9216522792
9216527614
9216533534
9216540370
9216547511
9216553615
9216560695
9216566432
9216574427
9216580958
9216588466
9216596644
9216602870
9216609523
9216618556
9216625148
9216633021
9216641200
9216648097
9216653346
9216661646
9216666407
9216674159
9216680995
9216687159
9216693324
9216699305
9216705592
9216711756
9216720118
9216726344
9216731959
9216739771
9216744776
9216752711
9216757410
9216764918
9216771265
9216778467
9216783411
9216790186
9216795679
9216802454
9216807886
9216813807
9216821802
9216827601
9216834315
9216841089
9216846583
9216852381
9216857874
9216864344
9216869898
9216875635
9216881800
9216888697
9216894251
9216899439
9216905359
9216913965
9216919580
9216925806
9216930994
9216935877
9216942713
9216948145
9216953089
9216960230
9216966944
9216973657
9216977991
9216983179
9216989649
9216994837
9217002832
9217008569
9217015405
9217021021
9217027246
9217032800
9217038110
9217043726
9217051172
9217056848
9217062097
9217068689
9217073328
9217079858
9217085718
9217090600
9217097192
9217101770
9217108301
9217113977
9217119165
9217123071
9217130884
9217136194
9217142907
9217148706
9217155237
9217162256
9217168054
9217174768
9217181298
9217188440
9217194726
9217201989
9217207666
9217214379
9217220605
9217227380
9217234887
9217240136
9217246606
9217251611
9217257592
9217264245
9217270165
9217277001
9217282922
9217288903
9217293664
9217300134
9217305688
9217310571
9217317529
9217322778
9217327782
9217334130
9217339135
9217345238
9217352135
9217358666
9217365990
9217371056
9217378014
9217384118
9217390038
9217396386
9217401330
9217408898
9217414513
9217420678
9217427392
9217431786
9217438561
9217444420
9217450219
9217458336
9217463097
9217471032
9217475914
9217481530
9217488305
9217494042
9217499474
9217506920
9217515831
9217524132
9217529808
9217535301
9217542565
9217548058
9217554528
9217561791
9217568505
9217575035
9217580956
9217585594
9217592735
9217602684
9217608482
9217616478
9217621910
9217628136
9217635582
9217642601
9217650780
9217656578
9217663353
9217669212
9217674461
9217681663
9217686912
9217692711
9217700950
9217706566
9217711876
9217719444
9217725059
9217730308
9217735618
9217743187
9217749351
9217755027
9217760704
9217767357
9217773094
9217780479
9217786644
9217795433
9217803367
9217810081
9217816307
9217823509
9217829795
9217836570
9217842613
9217850669
9217856346
9217861900
9217868675
9217874107
9217880882
9217885948
9217893150
9217900230
9217908592
9217914329
9217918784
9217925376
9217932029
9217937949
9217946006
9217953452
9217958579
9217966148
9217972190
9217979026
9217984824
9217990317
9217998496
9218004111
9218011497
9218017966
9218024314
9218029441
9218037009
9218044700
9218051047
9218056907
9218062339
9218068869
9218074546
9218080161
9218085898
9218091758
9218098655
9218105368
9218110556
9218117942
9218122641
9218130881
9218136557
9218143881
9218150229
9218156882
9218164633
9218171347
9218179038
9218184836
9218191977
9218197470
9218204428
9218208456
9218215353
9218220236
9218227194
9218233725
9218241171
9218247458
9218253256
9218258383
9218264609
9218269797
9218277548
9218282065
9218287741
9218294394
9218300619
9218307760
9218314474
9218319540
9218325888
9218331869
9218336569
9218341940
9218347738
9218353781
9218358542
9218367392
9218373861
9218379293
9218384420
9218391500
9218397665
9218404684
9218411154
9218417746
9218423483
9218428610
9218434896
9218439901
9218445883
9218453573
9218458334
9218464803
9218469808
9218476095
9218480795
9218486044
9218493124
9218499654
9218504476
9218510641
9218515340
9218521566
9218526815
9218534078
9218541036
9218546163
9218551412
9218556966
9218563863
9218568319
9218575033
9218580709
9218587301
9218593465
9218598043
9218606100
9218610006
9218617025
9218622274
9218630025
9218635640
9218641439
9218648214
9218653829
9218659139
9218666341
9218671468
9218678975
9218685567
9218690877
9218696309
9218702962
9218708028
9218716878
9218723226
9218730001
9218735860
9218742147
9218748006
9218754048
9218759725
9218765401
9218772908
9218780354
9218787496
9218793233
9218799153
9218808125
9218815022
9218821370
9218827168
9218833577
9218840169
9218846516
9218853169
9218859456
9218866719
9218872761
9218879353
9218885091
9218891194
9218896870
9218903767
9218909016
9218916951
9218922505
9218928547
9218933796
9218942891
9218947712
9218956624
9218962788
9218971089
9218978657
9218985066
9218991108
9218997273
9219003865
9219012104
9219018025
9219025166
9219030049
9219036885
9219042500
9219049214
9219054768
9219062031
9219068501
9219075337
9219081135
9219087360
9219093342
9219097859
9219105366
9219111408
9219121052
9219127399
9219133381
9219138691
9219144550
9219150837
9219158222
9219165363
9219171039
9219177021
9219183796
9219188679
9219195637
9219202778
9219207844
9219216633
9219223224
9219229511
9219234394
9219240986
9219245990
9219254230
9219259540
9219268207
9219273273
9219280231
9219284687
9219291462
9219296772
9219302326
9219309406
9219316608
9219321918
9219327289
9219331867
9219338764
9219343769
9219350788
9219357501
9219362811
9219368427
9219374835
9219379535
9219385883
9219390582
9219398578
9219404193
9219411334
9219417011
9219422443
9219428790
9219434955
9219440570
9219448138
9219455951
9219465106
9219472308
9219480792
9219487750
9219494159
9219503924
9219510028
9219516986
9219522296
9219528705
9219534198
9219542193
9219548785
9219555682
9219563556
9219570147
9219576556
9219582782
9219589556
9219596026
9219602496
9219608172
9219613665
9219618304
9219624530
9219631488
9219637469
9219641863
9219649310
9219654254
9219659747
9219664630
9219671038
9219677752
9219682452
9219688982
9219695513
9219702105
9219708941
9219714312
9219722308
9219727435
9219733843
9219740313
9219746783
9219751788
9219760821
9219765948
9219773333
9219779131
9219786700
9219792803
9219798174
9219805865
9219810625
9219818743
9219826250
9219832598
9219838396
9219846209
9219852678
9219860064
9219864946
9219872210
9219878923
9219885759
9219891741
9219897966
9219903765
9219912065
9219917986
9219925920
9219932634
9219938616
9219946489
9219954302
9219961015
9219968706
9219974199
9219981340
9219987077
9219994768
9220000139
9220007219
9220013750
9220021257
9220028764
9220036577
9220044084
9220050859
9220058183
9220065507
9220072343
9220079851
9220087907
9220093278
9220101518
9220108537
9220115129
9220123369
9220133073
9220139299
9220146074
9220154069
9220159929
9220167741
9220176225
9220182145
9220189714
9220196061
9220201799
9220209306
9220214799
9220221269
9220229142
9220234757
9220240190
9220247270
9220252519
9220260331
9220266984
9220273759
9220281144
9220287614
9220293046
9220299149
9220305924
9220314042
9220319718
9220327042
9220334000
9220341508
9220348038
9220355302
9220361649
9220366959
9220375992
9220381913
9220388199
9220394547
9220401444
9220409012
9220415970
9220421830
9220429886
9220437577
9220444352
9220450516
9220457413
9220462601
9220470902
9220477738
9220483658
9220490128
9220495865
9220502091
9220507950
9220513871
9220521256
9220526871
9220533402
9220541397
9220547501
9220552994
9220558121
9220565323
9220571121
9220577957
9220583450
9220590897
9220596756
9220603958
9220609879
9220617264
9220623184
9220630753
9220635513
9220643387
9220650711
9220657608
9220665604
9220671768
9220677444
9220683609
9220689529
9220696426
9220702347
9220708755
9220714065
9220721695
9220727432
9220734085
9220740493
9220746963
9220752273
9220757644
9220765030
9220769973
9220776504
9220781631
9220787490
9220792861
9220799758
9220806533
9220812271
9220817275
9220823867
9220828567
9220833999
9220840225
9220846328
9220851943
9220856948
9220863540
9220869216
9220875076
9220880264
9220886428
9220892776
9220898147
9220903274
9220910659
9220915359
9220921889
9220927810
9220933486
9220938796
9220945510
9220951736
9220956496
9220961379
9220967666
9220975112
9220979751
9220986342
9220992019
9220997207
9221003127
9221008132
9221013625
9221021316
9221026626
9221032424
9221038222
9221045424
9221050979
9221056716
9221064040
9221069655
9221076186
9221081496
9221088332
9221093642
9221100478
9221106093
9221114882
9221119765
9221126723
9221131301
9221139174
9221143691
9221150038
9221154677
9221163344
9221169753
9221175429
9221181471
9221187209
9221193800
9221199416
9221206740
9221212233
9221219618
9221225478
9221231703
9221239271
9221246535
9221253859
9221260023
9221266859
9221272475
9221278090
9221284010
9221292067
9221299574
9221305922
9221314284
9221320692
9221328199
9221336256
9221342787
9221350294
9221357069
9221364332
9221370253
9221374830
9221382338
9221386915
9221392347
9221400831
9221408827
9221414991
9221420790
9221426222
9221431959
9221438124
9221443861
9221450086
9221457227
9221463087
9221469740
9221477247
9221481764
9221490064
9221497694
9221503248
9221509229
9221515821
9221520094
9221527235
9221533277
9221538953
9221546949
9221553419
9221560682
9221566297
9221572034
9221578077
9221584302
9221590894
9221597852
9221605115
9221612012
9221617627
9221625318
9221630628
9221636853
9221646253
9221652662
9221659742
9221665174
9221672010
9221677137
9221684705
9221690747
9221696241
9221703565
9221710340
9221714978
9221722302
9221727185
9221734326
9221740674
9221747266
9221751721
9221758130
9221764417
9221770642
9221776746
9221781812
9221790662
9221796399
9221803479
9221808423
9221815076
9221822095
9221829114
9221834912
9221841016
9221847851
9221853528
9221859936
9221865369
9221870190
9221877209
9221888135
9221898022
9221903821
9221913037
9221919201
9221926465
9221933972
9221940442
9221947155
9221953930
9221961132
9221966504
9221970837
9221978955
9221984448
9221989880
9221995922
9222001416
9222008862
9222013806
9222020825
9222025707
9222032177
9222036999
9222042370
9222048779
9222055187
9222061474
9222068310
9222073132
9222079907
9222085522
9222092053
9222096691
9222103039
9222110912
9222116772
9222122387
9222128735
9222134655
9222140209
9222146984
9222153210
9222159801
9222166820
9222171459
9222180004
9222187206
9222192760
9222198986
9222204662
9222210094
9222217540
9222224193
9222229931
9222236705
9222243847
9222249828
9222256420
9222262218
9222268810
9222274791
9222283336
9222288829
9222294384
9222301708
9222308849
9222315807
9222321666
9222328502
9222334606
9222340770
9222348277
9222353710
9222360729
9222365794
9222372997
9222380870
9222386729
9222393260
9222399364
9222407359
9222413646
9222419810
9222426524
9222434215
9222440135
9222447276
9222453441
9222459788
9222466441
9222474437
9222483592
9222489329
9222495921
9222502635
9222511058
9222516795
9222523326
9222532054
9222539378
9222544383
9222552073
9222557994
9222563243
9222568553
9222575938
9222582591
9222588145
9222593882
9222600352
9222607371
9222611888
9222618418
9222623850
9222633250
9222638804
9222644541
9222650950
9222658946
9222664011
9222671214
9222678233
9222683848
9222689707
9222696360
9222702036
9222707346
9222714182
9222719797
9222728403
9222733347
9222740183
9222744639
9222751475
9222755930
9222764048
9222770640
9222776987
9222784067
9222789744
9222794993
9222800669
9222807444
9222813364
9222817209
9222827829
9222833139
9222841623
9222848948
9222854746
9222864145
9222870005
9222876230
9222882883
9222890268
9222895517
9222901255
9222907480
9222914377
9222920847
9222927622
9222934030
9222940439
9222946970
9222953684
9222959604
9222965402
9222971567
9222978281
9222985666
9222991892
9222997324
9223003976
9223009409
9223016672
9223023508
9223028390
9223035348
9223041574
9223047006
9223053720
9223059091
9223070993
9223076852
9223084482
9223090036
9223097299
9223104562
9223111215
9223117196
9223125802
9223131112
9223136972
9223143197
9223148751
9223155282
9223159921
9223166574
9223172799
9223179147
9223184701
9223190621
9223196298
9223203195
9223209909
9223215890
9223222177
9223227120
9223233529
9223239511
9223245980
9223251351
9223257577
9223262948
9223269051
9223274484
9223279794
9223286691
9223292794
9223297799
9223303231
9223310006
9223315133
9223321725
9223326913
9223333626
9223339242
9223345833
9223351388
9223357308
9223362923
9223367501
9223376290
9223382638
9223389290
9223393929
9223401192
9223407418
9223412362
9223417550
9223424324
9223431954
9223438851
9223444893
9223450203
9223457772
9223464058
9223471260
9223477059
9223485237
9223491402
9223497261
9223503304
9223509651
9223517037
9223523201
9223530281
9223536202
9223543953
9223549751
9223555489
9223561653
9223568733
9223576363
9223582283
9223589485
9223594551
9223601448
9223606819
9223616646
9223623299
9223629829
9223637520
9223643196
9223650215
9223656135
9223665108
9223670723
9223681648
9223687752
9223695198
9223701912
9223708442
9223714912
9223722053
9223728279
9223734626
9223742622
9223748115
9223754402
9223760139
9223767891
9223773811
9223781440
9223787849
9223793403
9223800422
9223805915
9223811164
9223818916
9223824104
9223831672
9223837348
9223844428
9223850471
9223857612
9223863654
9223869331
9223877998
9223882880
9223889655
9223896552
9223902534
9223908942
9223914985
9223921821
9223928046
9223934333
9223942329
9223948798
9223954963
9223960151
9223967902
9223972907
9223980292
9223986213
9223993842
9224000007
9224007392
9224012946
9224020148
9224027594
9224034064
9224040534
9224047126
9224055365
9224061652
9224068305
9224076544
9224084418
9224090094
9224097846
9224102545
9224109931
9224116278
9224121955
9224130683
9224136298
9224143378
9224144904
9224155707
9224162665
9224167792
9224174200
9224181036
9224188239
9224192694
9224200323
9224203436
9224212653
9224219733
9224225104
9224230048
9224237616
9224243231
9224248419
9224255133
9224263190
9224270575
9224277655
9224287542
9224296270
9224303595
9224308539
9224316473
9224321234
9224328680
9224335577
9224341131
9224347479
9224353033
9224359747
9224364569
9224370001
9224376837
9224382391
9224388861
9224394110
9224399237
9224404486
9224410467
9224417303
9224423590
9224430425
9224435003
9224441900
9224448614
9224456487
9224463323
9224468694
9224474065
9224480474
9224485845
9224492071
9224498663
9224504156
9224510809
9224517767
9224523504
9224529180
9224535650
9224542486
9224548101
9224554693
9224559881
9224566595
9224571966
9224578863
9224585882
9224591253
9224598516
9224603338
9224610051
9224614751
9224621892
9224628911
9224633733
9224641118
9224647710
9224653752
9224660161
9224666082
9224675725
9224681707
9224689031
9224694097
9224701238
9224707707
9224712895
9224721135
9224726750
9224732182
9224738835
9224744512
9224751164
9224755986
9224763066
9224770696
9224775456
9224783574
9224789311
9224794865
9224801091
9224806645
9224813176
9224820744
9224825200
9224832341
9224836796
9224844182
9224850346
9224856938
9224863469
9224871892
9224877995
9224886479
9224892766
9224900822
9224907353
9224915593
9224922306
9224928105
9224935856
9224941410
9224949040
9224954777
9224960636
9224968205
9224973881
9224982060
9224986882
9224992192
9224999882
9225005802
9225012577
9225018620
9225024052
9225031498
9225038395
9225044010
9225050236
9225059208
9225064884
9225071903
9225078922
9225084232
9225090641
9225097050
9225104130
9225111759
9225117618
9225125126
9225130741
9225136906
9225144291
9225151127
9225155704
9225163517
9225170536
9225176395
9225182682
9225190372
9225198368
9225203312
9225210819
9225216068
9225223697
9225230350
9225237735
9225244266
9225250125
9225257999
9225264957
9225270938
9225277225
9225285953
9225292423
9225299930
9225307620
9225313358
9225318485
9225325687
9225333316
9225340518
9225346866
9225352542
9225360050
9225366763
9225372562
9225379459
9225384708
9225392337
9225398868
9225404239
9225410403
9225418338
9225423709
9225434085
9225440799
9225449222
9225454593
9225461856
9225469974
9225478518
9225484744
9225489810
9225497806
9225514956
9225520388
9225525821
9225532656
9225537967
9225544436
9225549929
9225556582
9225561831
9225566653
9225574832
9225579409
9225586306
9225591311
9225596804
9225603335
9225608584
9225615359
9225620852
9225626284
9225633242
9225637515
9225644473
9225650393
9225657168
9225663332
9225669802
9225675356
9225681094
9225688052
9225693362
9225698672
9225705447
9225710940
9225717226
9225722781
9225728152
9225734988
9225741091
9225746523
9225752260
9225758974
9225764040
9225770571
9225776552
9225783877
9225789675
9225796023
9225801882
9225807924
9225813601
9225819826
9225825686
9225832094
9225839174
9225844606
9225850893
9225857302
9225864077
9225870058
9225878115
9225884218
9225889772
9225897280
9225903322
9225910707
9225917543
9225924623
9225930666
9225937502
9225943178
9225949648
9225955446
9225960451
9225967653
9225973756
9225981569
9225986879
9225995729
9226003297
9226009889
9226015687
9226023073
9226030580
9226040590
9226047059
9226053651
9226060182
9226067262
9226075136
9226081239
9226088136
9226094301
9226101259
9226107484
9226112794
9226120668
9226126344
9226134034
9226138124
9226145753
9226152223
9226157960
9226164003
9226171815
9226177125
9226184815
9226190675
9226197938
9226202577
9226210633
9226216981
9226224305
9226230470
9226236024
9226241761
9226248902
9226255067
9226262330
9226269288
9226274415
9226282655
9226289735
9226295777
9226300843
9226308411
9226315369
9226321656
9226329407
9226335694
9226341187
9226349000
9226354371
9226360657
9226367920
9226374146
9226379883
9226387696
9226392945
9226400818
9226406189
9226412476
9226419129
9226425293
9226433106
9226439392
9226445679
9226452576
9226460572
9226467285
9226474060
9226481018
9226488526
9226495056
9226501709
9226510193
9226517212
9226524048
9226531128
9226537537
9226544190
9226552612
9226558777
9226565064
9226570862
9226576904
9226583008
9226590210
9226597656
9226603577
9226609314
9226616028
9226621460
9226627441
9226634460
9226641723
9226646423
9226655945
9226661438
9226668213
9226675232
9226681579
9226691040
9226697754
9226704345
9226710754
9226717224
9226724060
9226730774
9226736816
9226742675
9226750061
9226754882
9226762451
9226767272
9226774841
9226779785
9226786987
9226792236
9226798522
9226803283
9226809570
9226814330
9226820678
9226826232
9226832763
9226838683
9226844726
9226850341
9226857360
9226862731
9226867736
9226874450
9226879821
9226886779
9226892028
9226897399
9226903930
9226908874
9226913879
9226920775
9226925963
9226932372
9226937316
9226943664
9226948791
9226955138
9226960753
9226965819
9226973998
9226980040
9226985656
9226992553
9226998229
9227004638
9227010802
9227016845
9227022643
9227028930
9227036193
9227041686
9227048400
9227054625
9227059935
9227067382
9227071959
9227079161
9227086119
9227091796
9227098204
9227104186
9227109557
9227117613
9227122557
9227130370
9227138182
9227144591
9227150572
9227156859
9227164671
9227169981
9227177428
9227183104
9227190123
9227196898
9227202025
9227209898
9227217345
9227223631
9227229979
9227235899
9227242247
9227250853
9227260985
9227268675
9227275694
9227281859
9227288878
9227296812
9227303404
9227311705
9227319029
9227325254
9227332457
9227338621
9227343687
9227351744
9227357359
9227363584
9227370848
9227377012
9227383177
9227389524
9227396421
9227402708
9227409666
9227415891
9227422483
9227428648
9227435178
9227441221
9227447691
9227453794
9227461912
9227467954
9227473692
9227479856
9227486387
9227492490
9227499448
9227505552
9227511411
9227519224
9227524534
9227532163
9227537351
9227543394
9227548948
9227556638
9227561887
9227569578
9227574888
9227582639
9227588376
9227595578
9227601865
9227607969
9227615354
9227622312
9227628659
9227635312
9227641416
9227647580
9227653867
