9480863363
9480869039
9480874227
9480879720
9480884725
9480889486
9480894124
9480899129
9480905111
9480910299
9480916158
9480921834
9480928365
9480934346
9480941121
9480946920
9480952352
9480957235
9480964559
9480970296
9480977498
9480982381
9480989583
9480996297
9481002706
9481008382
9481015462
9481020223
9481029561
9481034322
9481041036
9481048482
9481056477
9481065633
9481073872
9481081014
9481089192
9481096394
9481104024
9481112569
9481119221
9481128255
9481133931
9481142354
9481146931
9481155537
9481162373
9481169148
9481175801
9481184041
9481190693
9481197529
9481205037
9481212727
9481220173
9481226948
9481234150
9481243367
9481249592
9481256794
9481263508
9481270344
9481276203
9481284504
9481293232
9481301289
9481309651
9481317585
9481325581
9481334065
9481343281
9481351032
9481357258
9481366779
9481374836
9481382099
9481391010
9481398151
9481405964
9481412617
9481422687
9481430073
9481437641
9481445698
9481451374
9481460407
9481468464
9481475178
9481482685
9481489826
9481497577
9481506794
9481514362
9481522602
9481528156
9481535907
9481541645
9481551105
9481558063
9481565692
9481575458
9481585163
9481593219
9481600788
9481609394
9481618427
9481626788
9481632221
9481641376
9481647296
9481656329
9481663471
9481670795
9481678790
9481685138
9481695697
9481706988
9481712237
9481721576
9481729205
9481737018
9481746417
9481753802
9481761981
9481770160
9481777545
9481786090
9481794574
9481800433
9481809466
9481816058
9481825152
9481832599
9481840106
9481848834
9481856646
9481864520
9481873126
9481881427
9481888812
9481895159
9481903826
9481912066
9481919512
9481928729
9481938311
9481944903
9481954852
9481961016
9481969561
9481977496
9481993243
9482002215
9482007647
9482018755
9482027361
9482035784
9482043108
9482051409
9482058794
9482062884
9482071795
9482079119
9482087298
9482095903
9482104082
9482109697
9482117388
9482124407
9482130327
9482138689
9482143511
9482153521
9482160540
9482167375
9482174883
9482183245
9482192278
9482199175
9482206255
9482215227
9482224199
9482230608
9482240556
9482250322
9482257829
9482264787
9482272661
9482280901
9482290361
9482298601
9482306963
9482314836
9482322282
9482329545
9482336992
9482344499
9482354082
9482360612
9482369096
9482375566
9482384660
9482392656
9482401262
9482411760
9482418535
9482427934
9482435929
9482441301
9482450578
9482457231
9482467851
9482475297
9482482560
9482490190
9482495927
9482504533
9482514909
9482522294
9482530839
9482538896
9482546708
9482553422
9482562516
9482574113
9482579850
9482590714
9482597611
9482606644
9482614640
9482623673
9482632767
9482639054
9482648514
9482657670
9482665299
9482671952
9482681717
9482688614
9482696915
9482703446
9482713578
9482721268
9482726761
9482735672
9482743119
9482750870
9482756546
9482764420
9482771500
9482779495
9482787735
9482795487
9482802201
9482810135
9482818253
9482826309
9482833206
9482840469
9482847427
9482856033
9482862808
9482870071
9482878128
9482885574
9482892899
9482900162
9482907730
9482915543
9482922989
9482927322
9482938553
9482946121
9482953872
9482960953
9482967239
9482976150
9482981216
9482990310
9482998428
9483006363
9483013809
9483020584
9483031875
9483040054
9483047683
9483055130
9483063552
9483071487
9483078445
9483087417
9483093887
9483103652
9483111587
9483119521
9483128311
9483136428
9483143874
9483152053
9483159072
9483164748
9483172805
9483180495
9483190749
9483197341
9483203506
9483210464
9483217666
9483223952
9483229629
9483238479
9483243117
9483250991
9483257827
9483263869
9483270339
9483276259
9483283034
9483288100
9483295241
9483302077
9483309768
9483315383
9483321975
9483327773
9483335646
9483340041
9483350539
9483357558
9483362746
9483370803
9483376235
9483384230
9483388259
9483396926
9483403395
9483409499
9483413039
9483422438
9483427626
9483433974
9483440810
9483447340
9483453505
9483459670
9483464369
9483470534
9483476515
9483483229
9483490431
9483495497
9483502699
9483507338
9483514479
9483521193
9483527418
9483532728
9483542250
9483548659
9483555433
9483562758
9483568983
9483576185
9483583204
9483591566
9483599928
9483605665
9483613783
9483619337
9483623487
9483632948
9483640028
9483646864
9483654554
9483662123
9483670179
9483675917
9483681837
9483689894
9483695936
9483702955
9483713209
9483720167
9483726270
9483732862
9483738538
9483746778
9483752210
9483759962
9483766126
9483774610
9483782178
9483789747
9483795240
9483802564
9483809827
9483815626
9483825391
9483833326
9483839063
9483846570
9483854017
9483860608
9483868543
9483875562
9483881788
9483890332
9483898938
9483903699
9483912732
9483919324
9483928174
9483934705
9483941724
9483949109
9483957898
9483964917
9483973401
9483982923
9483991712
9483999036
9484007581
9484015637
9484023572
9484031018
9484040112
9484047131
9484055737
9484063062
9484071179
9484078625
9484085767
9484091809
9484099377
9484104321
9484111829
9484115430
9484123669
9484130261
9484136487
9484143078
9484147534
9484154370
9484160290
9484165295
9484171460
9484178479
9484185437
9484191357
9484196728
9484202649
9484208874
9484213940
9484222302
9484227246
9484232067
9484239025
9484243969
9484250866
9484255810
9484261303
9484266979
9484274182
9484278942
9484286206
9484292248
9484296826
9484301647
9484308544
9484315930
9484321484
9484326855
9484332165
9484337841
9484343639
9484348644
9484354992
9484360790
9484367687
9484372936
9484378368
9484383739
9484389172
9484394848
9484400402
9484406567
9484411266
9484417065
9484423107
9484427624
9484433666
9484439464
9484446544
9484451977
9484457226
9484462291
9484467540
9484470653
9484477794
9484485058
9484490917
9484496532
9484500744
9484507518
9484513683
9484519664
9484525463
9484532177
9484536937
9484544200
9484549633
9484555187
9484560558
9484566295
9484572704
9484578990
9484585033
9484591564
9484597667
9484604259
9484609264
9484616893
9484623241
9484628795
9484637340
9484643810
9484650157
9484656322
9484663646
9484671580
9484677501
9484684276
9484689037
9484695628
9484702220
9484708629
9484714305
9484721629
9484726756
9484734386
9484740245
9484745799
9484750926
9484759654
9484766429
9484772777
9484778697
9484784861
9484791514
9484797679
9484803599
9484808482
9484815440
9484821971
9484828318
9484832774
9484839793
9484845957
9484851573
9484858897
9484866648
9484871897
9484878733
9484883799
9484889598
9484896250
9484901866
9484906931
9484914439
9484920359
9484928355
9484935435
9484942454
9484949778
9484956675
9484962656
9484968943
9484975230
9484979929
9484986643
9484992808
9484999155
9485006113
9485013132
9485018931
9485024424
9485031138
9485037546
9485042612
9485048350
9485055491
9485062204
9485067270
9485073374
9485078440
9485085459
9485090586
9485097544
9485103708
9485111032
9485116037
9485123178
9485129343
9485135324
9485141916
9485146616
9485155344
9485161936
9485167795
9485173960
9485179087
9485185190
9485188913
9485197580
9485204660
9485211496
9485217966
9485224680
9485231394
9485236276
9485243601
9485251108
9485258493
9485263986
9485270639
9485275705
9485283334
9485288461
9485295175
9485299997
9485307382
9485312143
9485319040
9485323984
9485330881
9485341806
9485348642
9485354928
9485360849
9485368295
9485374948
9485381601
9485386850
9485393747
9485400155
9485407968
9485411691
9485419992
9485427621
9485434518
9485438424
9485447213
9485453744
9485460397
9485465829
9485471688
9485477426
9485483285
9485489205
9485495858
9485501595
9485508248
9485514840
9485519967
9485528024
9485531991
9485542245
9485547494
9485553536
9485559457
9485564278
9485570504
9485574960
9485581551
9485588753
9485594674
9485598946
9485604378
9485610726
9485614754
9485620614
9485627144
9485634286
9485639229
9485645150
9485649544
9485655465
9485659920
9485666207
9485672616
9485678231
9485681344
9485688546
9485694588
9485699837
9485705269
9485709603
9485717537
9485721993
9485727791
9485733467
9485739205
9485743843
9485750252
9485756172
9485763253
9485767830
9485774971
9485780403
9485786202
9485792427
9485798836
9485805672
9485812935
9485817879
9485824226
9485830635
9485835701
9485842598
9485847603
9485854866
9485862373
9485868416
9485875069
9485882393
9485888191
9485893745
9485901680
9485908272
9485914924
9485922066
9485928718
9485932747
9485942390
9485948982
9485955391
9485961738
9485967842
9485973640
9485979622
9485984810
9485991279
9485998115
9486005073
9486009712
9486015937
9486022895
9486027534
9486034126
9486040657
9486047126
9486054206
9486060615
9486065803
9486071601
9486078254
9486084419
9486089851
9486097480
9486102851
9486110053
9486115119
9486120857
9486126106
9486133491
9486140205
9486147834
9486154060
9486160163
9486165961
9486172004
9486178107
9486184882
9486191779
9486198310
9486205207
9486209846
9486217536
9486222053
9486228217
9486234748
9486242072
9486247382
9486253241
9486259833
9486265571
9486272101
9486277961
9486283576
9486291144
9486296271
9486303901
9486309821
9486314399
9486319464
9486327094
9486335211
9486341437
9486347724
9486353827
9486358771
9486364936
9486370856
9486377387
9486384406
9486390997
9486397772
9486402594
9486410346
9486415045
9486421698
9486428717
9486436896
9486442572
9486449164
9486456549
9486463019
9486468146
9486474982
9486480475
9486487006
9486492194
9486501349
9486508429
9486514837
9486522894
9486527960
9486534796
9486539496
9486546942
9486551458
9486558844
9486563360
9486569464
9486577276
9486583197
9486589850
9486595037
9486601385
9486607733
9486612555
9486617987
9486625616
9486632757
9486638372
9486644110
9486649725
9486655645
9486659246
9486666326
9486671942
9486679388
9486686285
9486692327
9486695745
9486702703
9486709905
9486714544
9486722418
9486727056
9486733526
9486739385
9486744695
9486750616
9486756963
9486763189
9486770147
9486774480
9486780706
9486786382
9486791631
9486796209
9486801275
9486807989
9486814580
9486817693
9486825506
9486830633
9486835943
9486841375
9486846929
9486852788
9486858465
9486864263
9486868291
9486875127
9486879216
9486885747
9486892400
9486897344
9486903081
9486908391
9486912786
9486919011
9486923467
9486929998
9486936711
9486942449
9486947759
9486953313
9486958928
9486963079
9486970403
9486974980
9486981816
9486987187
9486995000
9487001347
9487007268
9487013249
9487019780
9487026067
9487032414
9487037968
9487043889
9487049504
9487054082
9487062016
9487069035
9487073918
9487079716
9487085454
9487091374
9487097050
9487103825
9487109013
9487117131
9487122746
9487128483
9487134953
9487140263
9487146794
9487153325
9487159062
9487166630
9487172307
9487177372
9487182621
9487190800
9487196354
9487203556
9487211003
9487217656
9487224858
9487231938
9487236149
9487245793
9487252629
9487259953
9487267826
9487272892
9487279179
9487285404
9487291752
9487298405
9487303959
9487308964
9487317204
9487324162
9487329594
9487336185
9487342411
9487347599
9487353397
9487360599
9487368107
9487373905
9487379948
9487385746
9487391788
9487395267
9487403507
9487407474
9487416508
9487420109
9487428104
9487434269
9487440555
9487447208
9487454166
9487461551
9487466556
9487473636
9487480350
9487486210
9487490848
9487497562
9487504703
9487510746
9487517704
9487522831
9487529666
9487535099
9487541690
9487547367
9487556095
9487562869
9487566593
9487574222
9487581180
9487587467
9487591251
9487600040
9487604068
9487612735
9487619388
9487625613
9487631656
9487637759
9487642032
9487650150
9487657962
9487665042
9487670047
9487676150
9487683169
9487689944
9487697024
9487703677
9487711001
9487718387
9487724795
9487730777
9487737918
9487744815
9487750674
9487757571
9487764346
9487769961
9487777285
9487781558
9487789126
9487796267
9487802920
9487809024
9487814883
9487820010
9487825564
9487831973
9487836978
9487842959
9487849856
9487855410
9487861697
9487867495
9487873416
9487880557
9487886660
9487892581
9487900454
9487907534
9487914431
9487919619
9487926699
9487933169
9487938235
9487944643
9487949892
9487957644
9487964114
9487970949
9487976931
9487983401
9487988039
9487993960
9487999880
9488004275
9488010988
9488016970
9488022646
9488029421
9488034426
9488041262
9488048159
9488052492
9488060122
9488064394
9488071596
9488077517
9488082949
9488088686
9488093996
9488100954
9488105959
9488112795
9488118349
9488124086
9488131288
9488135988
9488142824
9488149233
9488156374
9488159853
9488167299
9488173830
9488179323
9488185854
9488193056
9488199037
9488204530
9488209840
9488216615
9488221620
9488228273
9488234743
9488240114
9488247255
9488252992
9488259767
9488267824
9488273256
9488279970
9488284547
9488290773
9488296022
9488303163
9488310548
9488315614
9488322572
9488327577
9488334901
9488339906
9488348268
9488354310
9488360902
9488366151
9488372804
9488378541
9488385926
9488390748
9488399476
9488405702
9488411683
9488418153
9488423829
9488428956
9488435609
9488441468
9488448548
9488454835
9488461122
9488467774
9488473756
9488479371
9488487245
9488493409
9488498414
9488505433
9488511231
9488517213
9488523682
9488530030
9488536256
9488543092
9488549317
9488554383
9488561646
9488568299
9488576112
9488582703
9488589417
9488594971
9488601807
9488607117
9488614564
9488621399
9488627869
9488633668
9488640320
9488646729
9488652161
9488658570
9488664673
9488673218
9488679688
9488686646
9488691773
9488699402
9488706055
9488713257
9488721253
9488727967
9488734619
9488739746
9488747620
9488752136
9488760437
9488766724
9488773682
9488780701
9488785217
9488791931
9488798767
9488804321
9488812439
9488818176
9488823914
9488829773
9488836365
9488840881
9488847351
9488855591
9488864136
9488869751
9488875976
9488883179
9488889587
9488895264
9488900757
9488908935
9488914001
9488920837
9488925903
9488932739
9488941650
9488948120
9488953430
9488959839
9488966186
9488971008
9488978088
9488985351
9488990051
9488996643
9489002685
9489009460
9489014160
9489020385
9489026062
9489032287
9489038574
9489044738
9489050903
9489057434
9489063049
9489069763
9489075256
9489081420
9489088073
9489095031
9489100951
9489107299
9489112853
9489120055
9489125182
9489133361
9489139648
9489144469
9489151916
9489156371
9489163512
9489169921
9489175597
9489181945
9489186278
9489192687
9489198607
9489205443
9489211974
9489217650
9489222960
9489229186
9489234740
9489241393
9489246825
9489253722
9489260985
9489267150
9489272582
9489277892
9489285643
9489292357
9489297850
9489303405
9489308043
9489314818
9489320861
9489326476
9489332579
9489338439
9489344237
9489348876
9489356505
9489361815
9489367613
9489373351
9489379820
9489386412
9489392821
9489398131
9489403868
9489408751
9489416014
9489421263
9489428038
9489431761
9489439146
9489446471
9489451781
9489458678
9489465208
9489471068
9489478331
9489485228
9489491209
9489498228
9489507506
9489513365
9489520079
9489527159
9489532225
9489538450
9489544920
9489552366
9489558409
9489566832
9489573362
9489579161
9489585875
9489593382
9489599302
9489605833
9489612303
9489619749
9489625486
9489631895
9489639646
9489644712
9489651792
9489656309
9489663694
9489668638
9489675901
9489683225
9489689390
9489695921
9489702268
9489708494
9489715879
9489720518
9489728391
9489734495
9489740293
9489746763
9489752439
9489758787
9489765989
9489774106
9489780149
9489786619
9489793516
9489800229
9489805662
9489813291
9489820859
9489827329
9489833433
9489839841
9489846433
9489851438
9489858762
9489863645
9489871640
9489875058
9489883054
9489889890
9489896054
9489901853
9489910092
9489917417
9489922605
9489928464
9489933591
9489940793
9489946103
9489952939
9489960935
9489967648
9489973569
9489979978
9489985837
9489992612
9489998410
9490004636
9490011533
9490016843
9490023496
9490030881
9490036923
9490043881
9490049741
9490057004
9490063901
9490070431
9490077023
9490085019
9490091977
9490098813
9490104794
9490112240
9490116452
9490122799
9490128720
9490135129
9490140744
9490147213
9490151242
9490159970
9490165585
9490171872
9490177060
9490184811
9490191037
9490196713
9490202511
9490208065
9490214535
9490221493
9490227291
9490234310
9490237850
9490246578
9490252255
9490257382
9490264279
9490269650
9490277950
9490283932
9490289791
9490295590
9490301693
9490307797
9490314388
9490321346
9490327450
9490331600
9490338192
9490344967
9490350399
9490356197
9490362423
9490368648
9490375790
9490380794
9490386410
9490392086
9490400020
9490404781
9490411922
9490416195
9490422725
9490428890
9490433712
9490440365
9490445797
9490452327
9490458553
9490463863
9490469051
9490473629
9490480770
9490485530
9490491634
9490496395
9490503536
9490509273
9490515499
9490521358
9490527889
9490533931
9490538448
9490544307
9490549434
9490557857
9490564266
9490570979
9490577266
9490581844
9490588924
9490594539
9490600948
9490607356
9490614497
9490619991
9490626521
9490632930
9490638057
9490644710
9490652583
9490659297
9490665340
9490671260
9490676204
9490682979
9490690730
9490697566
9490704280
9490710567
9490717036
9490722407
9490728328
9490734858
9490740535
9490749446
9490756099
9490762080
9490767939
9490773982
9490779841
9490786677
9490793757
9490799189
9490806025
9490812861
9490818537
9490825923
9490832331
9490839106
9490845454
9490851435
9490857295
9490863215
9490869502
9490875239
9490880610
9490888728
9490896601
9490903498
9490909602
9490916682
9490925166
9490932856
9490939631
9490946284
9490953242
9490960505
9490965571
9490972651
9490976557
9490984980
9490992792
9490997736
9491004572
9491012324
9491019343
9491026606
9491034113
9491040156
9491045221
9491052607
9491058527
9491066523
9491073053
9491079523
9491087091
9491092035
9491097773
9491105951
9491110773
9491119623
9491126398
9491132196
9491138117
9491144342
9491151178
9491157038
9491162409
9491170954
9491177240
9491183161
9491190241
9491195062
9491201227
9491208490
9491216180
9491222528
9491228998
9491236139
9491241571
9491249750
9491256952
9491261896
9491268915
9491274469
9491280817
9491285028
9491291559
9491298089
9491304254
9491310235
9491316522
9491322748
9491328546
9491333917
9491339410
9491347101
9491350518
9491359063
9491364679
9491370599
9491376886
9491382440
9491389337
9491395990
9491401544
9491407952
9491412469
9491419732
9491426019
9491432550
9491438348
9491444695
9491451409
9491457086
9491464349
9491470147
9491477288
9491482964
9491489556
9491495416
9491501946
9491507562
9491515069
9491521478
9491526849
9491532525
9491538628
9491543450
9491548882
9491555474
9491561089
9491566827
9491571404
9491577508
9491582696
9491588738
9491596184
9491600335
9491605889
9491611748
9491618279
9491621575
9491628533
9491635796
9491640984
9491646904
9491653801
9491659111
9491663567
9491670891
9491677605
9491683648
9491689751
9491694146
9491700188
9491706475
9491712029
9491720635
9491725518
9491732353
9491737908
9491743401
9491749199
9491755425
9491760979
9491768913
9491774529
9491780388
9491786736
9491792656
9491798271
9491804131
9491812309
9491817802
9491823784
9491830925
9491836357
9491841484
9491847465
9491853630
9491862053
9491868584
9491874687
9491880730
9491885368
9491892814
9491898735
9491906120
9491911552
9491919182
9491925590
9491931938
9491938591
9491943840
9491952446
9491958671
9491964592
9491971183
9491975639
9491982963
9491988273
9491994926
9492000175
9492009635
9492015861
9492023429
9492030265
9492036735
9492044486
9492051261
9492057243
9492064811
9492070060
9492078910
9492085746
9492090751
9492097831
9492103935
9492109306
9492116569
9492123588
9492129691
9492136466
9492141898
9492148795
9492153922
9492160636
9492168082
9492173636
9492181449
9492186820
9492193229
9492198417
9492205375
9492210502
9492217948
9492226310
9492232169
9492239310
9492245658
9492251883
9492256888
9492264762
9492272696
9492278556
9492286917
9492292411
9492299552
9492304557
9492312918
9492319327
9492325797
9492332755
9492338248
9492344901
9492349906
9492359183
9492365042
9492372061
9492377676
9492382681
9492389761
9492397330
9492402579
9492410269
9492416617
9492423025
9492427359
9492433768
9492438284
9492445364
9492454092
9492460318
9492465567
9492471365
9492476919
9492482840
9492488516
9492493643
9492501089
9492505789
9492513785
9492519583
9492525442
9492533987
9492540274
9492546621
9492552847
9492556997
9492564138
9492570913
9492577932
9492584768
9492590933
9492597280
9492603750
9492611685
9492617849
9492624319
9492630606
9492638113
9492642751
9492649160
9492654104
9492659536
9492666067
9492673269
9492678152
9492683340
9492688833
9492695242
9492701223
9492706716
9492712942
9492718984
9492723806
9492729543
9492735097
9492739614
9492745962
9492753225
9492758657
9492763967
9492769155
9492774465
9492779836
9492785268
9492790090
9492797353
9492803213
9492808339
9492813649
9492817983
9492824880
9492830861
9492837575
9492843435
9492848989
9492855520
9492861501
9492868276
9492875234
9492881642
9492886953
9492893422
9492899098
9492905507
9492911428
9492917775
9492922475
9492929555
9492934194
9492940785
9492947926
9492952809
9492959401
9492966603
9492973927
9492978932
9492986195
9492992116
9492999074
9493006886
9493013417
9493020619
9493026967
9493033253
9493039113
9493046254
9493053944
9493061391
9493067677
9493074025
9493079945
9493085011
9493092885
9493098561
9493104909
9493111500
9493118519
9493124440
9493130421
9493138356
9493144947
9493151539
9493158680
9493165272
9493171193
9493176686
9493184193
9493190846
9493197010
9493204273
9493208912
9493215504
9493221852
9493228810
9493234730
9493241932
9493248402
9493254322
9493257862
9493264576
9493272694
9493277577
9493284779
9493289600
9493296680
9493301624
9493308277
9493313221
9493320667
9493327259
9493334278
9493341419
9493346424
9493353138
9493359486
9493365894
9493370838
9493378467
9493383838
9493390796
9493394825
9493403736
9493411854
9493417225
9493424427
9493431019
9493436878
9493443775
9493450122
9493456714
9493464466
9493470874
9493476978
9493482776
9493488086
9493494068
9493501697
9493507740
9493514575
9493521045
9493528736
9493535083
9493539966
9493548938
9493554431
9493562122
9493567737
9493574451
9493578723
9493585986
9493592883
9493597766
9493604663
9493609790
9493617480
9493620959
9493628650
9493636218
9493641101
9493648303
9493654895
9493660998
9493666003
9493673144
9493678454
9493685412
9493693530
9493698779
9493705432
9493712451
9493718249
9493723437
9493730395
9493736132
9493744799
9493750781
9493757006
9493762317
9493766528
9493773425
9493778979
9493786853
9493790576
9493797473
9493803149
9493808398
9493814074
9493819873
9493825060
9493829516
9493836901
9493841967
9493847582
9493853564
9493861865
9493866930
9493873827
9493877856
9493884814
9493889697
9493896288
9493899584
9493906908
9493912707
9493918261
9493923815
9493929552
9493934618
9493941393
9493947802
9493951037
9493957567
9493963000
9493968249
9493974596
9493980761
9493985705
9493992663
9493999010
9494004748
9494010180
9494016527
9494022326
9494029894
9494035936
9494042040
9494048021
9494052233
9494058702
9494064745
9494072802
9494079637
9494085375
9494090746
9494096544
9494103136
9494109117
9494116686
9494121630
9494130113
9494135546
9494144090
9494150621
9494157213
9494164720
9494172044
9494176988
9494184862
9494189439
9494196886
9494202745
9494208910
9494214220
9494222520
9494231126
9494236436
9494243883
9494253526
9494259386
9494266038
9494272325
9494279527
9494284410
9494291185
9494298936
9494305772
9494312425
9494318284
9494325059
9494331773
9494338365
9494343919
9494351487
9494357713
9494363694
9494370164
9494376756
9494383042
9494390611
9494397874
9494404038
9494410447
9494416429
9494423020
9494430650
9494437608
9494444200
9494450425
9494456407
9494461778
9494467881
9494476914
9494483140
9494490647
9494496323
9494504807
9494510972
9494515549
9494522568
9494528001
9494534959
9494542283
9494548081
9494553818
9494559800
9494566880
9494572312
9494580124
9494585679
9494592576
9494599717
9494606064
9494613328
9494619797
9494628403
9494635178
9494641159
9494646653
9494652695
9494658860
9494666062
9494673752
9494679612
9494686325
9494692246
9494699021
9494706589
9494713303
9494719895
9494727341
9494733017
9494741379
9494749375
9494756088
9494762375
9494768173
9494775864
9494781784
9494788803
9494794174
9494800217
9494805466
9494814194
9494819992
9494826767
9494832626
9494839645
9494846054
9494852096
9494858078
9494865768
9494872116
9494877853
9494884323
9494889084
9494895065
9494901535
9494908493
9494914291
9494920150
9494926254
9494932296
9494938278
9494944259
9494952072
9494958541
9494964584
9494970077
9494974472
9494981735
9494988266
9494994735
9495001571
9495006149
9495012435
9495017501
9495023666
9495029525
9495034957
9495040756
9495045028
9495051071
9495056564
9495062301
9495069198
9495074752
9495080306
9495086349
9495092513
9495099349
9495104110
9495111129
9495115523
9495121627
9495127853
9495132918
9495138106
9495144210
9495151351
9495156539
9495162032
9495168441
9495173812
9495177657
9495185409
9495193282
9495199691
9495207076
9495213057
9495219771
9495226973
9495233626
9495240889
9495247237
9495252608
9495259261
9495263961
9495271407
9495275618
9495285201
9495290511
9495297225
9495304061
9495309249
9495315230
9495323226
9495329634
9495335311
9495341902
9495347884
9495355513
9495361311
9495368330
9495375777
9495381453
9495390425
9495395552
9495402937
9495410262
9495415633
9495424300
9495431135
9495437117
9495443526
9495448714
9495455244
9495463179
9495470015
9495476057
9495482710
9495489973
9495494856
9495501814
9495507979
9495516462
9495523726
9495528364
9495535139
9495540022
9495547590
9495553450
9495560835
9495565290
9495573652
9495580488
9495587019
9495593855
9495601179
9495607710
9495614363
9495621321
9495627668
9495633528
9495641340
9495649030
9495655988
9495661482
9495667036
9495674360
9495679792
9495686994
9495695661
9495702192
9495708723
9495715253
9495720686
9495727155
9495732770
9495738752
9495746442
9495753950
9495760480
9495766401
9495771833
9495778425
9495786237
9495792035
9495798444
9495804853
9495811506
9495816755
9495824262
9495830793
9495836896
9495843427
9495849897
9495856061
9495861859
9495869001
9495879438
9495885480
9495892621
9495899945
9495905805
9495913190
9495920636
9495926190
9495933576
9495937543
9495946454
9495952985
9495959515
9495965253
9495973187
9495979840
9495983807
9495991559
9495997113
9496002728
9496009503
9496015240
9496022992
9496028180
9496033856
9496039960
9496046124
9496052228
9496057721
9496065716
9496071637
9496077374
9496082928
9496088482
9496092572
9496099103
9496106122
9496111859
9496118329
9496123578
9496128338
9496134259
9496138836
9496146038
9496152935
9496157330
9496163739
9496168743
9496174908
9496180096
9496185711
9496191998
9496197613
9496204144
9496208599
9496215740
9496221417
9496228008
9496234173
9496240215
9496246197
9496249493
9496256512
9496262310
9496268963
9496275433
9496281231
9496287090
9496292095
9496296612
9496303997
9496311626
9496317242
9496322369
9496328594
9496334637
9496339153
9496345867
9496353435
9496359051
9496365032
9496371074
9496376140
9496381939
9496387066
9496393779
9496402507
9496407024
9496412334
9496419353
9496425701
9496431072
9496439678
9496446392
9496452739
9496457561
9496464031
9496470012
9496476848
9496482524
9496490764
9496495891
9496504558
9496511455
9496518840
9496526714
9496534221
9496539958
9496546733
9496553020
9496559062
9496564372
9496571086
9496577922
9496584148
9496589702
9496596049
9496603252
9496609416
9496615214
9496621684
9496630168
9496634196
9496642802
9496648540
9496654643
9496662089
9496668681
9496676188
9496682231
9496689677
9496695109
9496701213
9496707560
9496713237
9496720378
9496726359
9496732768
9496739360
9496745707
9496751872
9496757365
9496766093
9496772624
9496777079
9496783671
9496789897
9496795634
9496802653
9496810771
9496817484
9496824259
9496830424
9496835429
9496843241
9496849284
9496857523
9496863871
9496870402
9496875895
9496882182
9496888468
9496895182
9496903788
9496910014
9496916910
9496923319
9496930277
9496936442
9496943094
9496951334
9496958475
9496963724
9496970255
9496976542
9496982523
9496989664
9496996622
9497002848
9497010172
9497016398
9497025370
9497032511
9497042093
9497048380
9497056009
9497063517
9497069437
9497078165
9497085672
9497092020
9497098490
9497102884
9497110269
9497115152
9497122110
9497126016
9497133280
9497139993
9497145914
9497152078
9497157999
9497163370
9497168131
9497175089
9497182535
9497189066
9497195779
9497200479
9497206644
9497211648
9497218729
9497226358
9497232400
9497238992
9497243326
9497250345
9497254983
9497260721
9497268533
9497274392
9497279947
9497286416
9497292886
9497297708
9497303811
9497310525
9497315957
9497321573
9497326822
9497333230
9497337930
9497343911
9497350869
9497356607
9497361734
9497366677
9497372171
9497378091
9497383279
9497388101
9497395364
9497401345
9497406411
9497411965
9497417397
9497423867
9497429788
9497435830
9497441934
9497446999
9497451943
9497457070
9497462808
9497468850
9497474587
9497479836
9497486489
9497493386
9497497964
9497504861
9497512002
9497517983
9497523476
9497529946
9497534768
9497540627
9497546181
9497553872
9497559914
9497566079
9497572243
9497577370
9497584328
9497590615
9497597817
9497604653
9497612099
9497617653
9497624855
9497631691
9497640419
9497646096
9497652932
9497658486
9497663796
9497671669
9497678078
9497684792
9497691445
9497697975
9497704201
9497710488
9497716469
9497721901
9497729347
9497733620
9497742409
9497749855
9497755043
9497762672
9497767860
9497775734
9497780312
9497788368
9497792213
9497801002
9497807594
9497812416
9497820167
9497827309
9497835243
9497840858
9497847511
9497853920
9497858986
9497867592
9497872230
9497881630
9497887306
9497893898
9497900123
9497905128
9497912697
9497920692
9497927101
9497946388
9497952064
9497959022
9497965675
9497971656
9497976661
9497986183
9497992408
9497998939
9498004737
9498009742
9498018226
9498024146
9498030494
9498037147
9498041908
9498048499
9498056068
9498063636
9498070045
9498076759
9498083656
9498088599
9498097022
9498102759
9498110999
9498118079
9498124366
9498130714
9498138099
9498144080
9498151404
9498158423
9498163856
9498171180
9498178870
9498186072
9498191810
9498200660
9498205603
9498214454
9498221656
9498228553
9498234900
9498240027
9498246741
9498251746
9498259436
9498265174
9498271033
9498275550
9498282080
9498288001
9498293555
9498299292
9498306189
9498311560
9498318701
9498323950
9498330481
9498337134
9498344031
9498350256
9498356726
9498360999
9498367957
9498372656
9498378455
9498383704
9498391699
9498397620
9498403296
9498406531
9498414038
9498420813
9498425329
9498432226
9498437964
9498445105
9498449927
9498455908
9498459692
9498466101
9498473303
9498478918
9498488134
9498492651
9498499121
9498505224
9498510717
9498515600
9498521582
9498527746
9498533789
9498538855
9498544165
9498548742
9498556616
9498561499
9498567724
9498572729
9498578710
9498582006
9498588842
9498595617
9498599829
9498605200
9498610632
9498616247
9498621130
9498627966
9498634435
9498639623
9498646337
9498651098
9498657751
9498665075
9498672216
9498679418
9498684057
9498691198
9498694494
9498703588
9498710119
9498716466
9498722814
9498729101
9498735265
9498740880
9498746313
9498753209
9498760595
9498766210
9498772130
9498778356
9498784520
9498791112
9498798925
9498803746
9498810643
9498816137
9498823766
9498829808
9498836156
9498842504
9498847448
9498855260
9498861608
9498867833
9498873754
9498880101
9498885106
9498892858
9498898534
9498905431
9498910802
9498918248
9498924840
9498931065
9498936192
9498942540
9498950414
9498955907
9498961949
9498967076
9498975621
9498981847
9498988377
9498993993
9499000523
9499007848
9499013402
9499019261
9499024266
9499031529
9499040318
9499045140
9499051243
9499057042
9499064183
9499068638
9499074742
9499080540
9499087864
9499094944
9499101719
9499107212
9499113438
9499118565
9499126377
9499133580
9499138646
9499145726
9499152195
9499157688
9499163670
9499170933
9499176914
9499183933
9499189427
9499197361
9499201023
9499209141
9499216648
9499223423
9499229954
9499235081
9499243137
9499249485
9499256260
9499262791
9499268223
9499276279
9499282871
9499290501
9499297092
9499303440
9499310398
9499316807
9499324985
9499330356
9499336826
9499343418
9499349460
9499354770
9499363498
9499371189
9499376743
9499383213
9499389438
9499396030
9499402439
9499408115
9499413242
9499420200
9499425083
9499432041
9499436008
9499445468
9499451267
9499456333
9499463047
9499469211
9499475193
9499481906
9499487949
9499494235
9499498630
9499507968
9499514499
9499519565
9499527133
9499532199
9499539401
9499546420
9499552463
9499557834
9499563388
9499568271
9499574069
9499580112
9499586826
9499593539
9499600009
9499605258
9499610446
9499618503
9499624728
9499630160
9499636203
9499641574
9499648227
9499651462
9499658786
9499664462
9499670382
9499676974
9499681674
9499688327
9499693576
9499698764
9499704806
9499712191
9499718356
9499722995
9499728305
9499734652
9499739718
9499746005
9499750399
9499756869
9499762789
9499768588
9499773959
9499780062
9499785983
9499791659
9499797946
9499803683
9499809176
9499817233
9499820773
9499829257
9499835604
9499841647
9499849032
9499854464
9499860873
9499867831
9499874606
9499880526
9499886324
9499894381
9499900362
9499906405
9499912020
9499919649
9499924959
9499930575
9499936373
9499943758
9499950289
9499955843
9499961336
9499968477
9499973116
9499980929
9499987154
9499993136
9499999361
9500005770
9500011995
9500019014
9500024813
9500029268
9500035433
9500042391
9500050142
9500054842
9500063936
9500070101
9500074983
9500081819
9500088350
9500093965
9500102022
9500107576
9500115206
9500121370
9500127718
9500133333
9500141206
9500147981
9500153841
9500160738
9500166658
9500172151
9500178438
9500184297
9500190401
9500199312
9500205171
9500211275
9500217683
9500224580
9500229829
9500236238
9500244172
9500250459
9500257234
9500262971
9500269197
9500274934
9500284456
9500289521
9500297151
9500303193
9500308503
9500314363
9500321443
9500326631
9500333406
9500340486
9500346711
9500354097
9500360078
9500367341
9500375459
9500382539
9500389253
9500395905
9500402192
9500407258
9500414582
9500420747
9500427339
9500432710
9500441438
9500447480
9500454316
9500460236
9500465668
9500473969
9500480622
9500486481
9500491791
9500497956
9500506379
9500512665
9500519929
9500525422
9500534516
9500541962
9500548859
9500556122
9500562409
9500570466
9500575776
9500582367
9500586213
9500593842
9500600556
9500607880
9500614289
9500618622
9500626129
9500631867
9500637482
9500643280
9500649323
9500655915
9500661286
9500667572
9500672455
9500679474
9500686005
9500690766
9500695282
9500703522
9500710724
9500715485
9500722260
9500727020
9500734161
9500741242
9500746857
9500754974
9500759796
9500765472
9500770111
9500778473
9500784332
9500790008
9500795441
9500801605
9500807403
9500811737
9500818390
9500824615
9500830475
9500836578
9500841522
9500848358
9500854217
9500860016
9500865387
9500871002
9500876495
9500882843
9500888031
9500893829
9500899810
9500907318
9500911895
9500919525
9500924774
9500930267
9500936492
9500941558
9500948394
9500954071
9500961212
9500966705
9500972564
9500977996
9500984344
9500991607
9500998382
9501004180
9501009551
9501016692
9501022491
9501028228
9501034515
9501041106
9501046844
9501052459
9501057525
9501063750
9501069549
9501075896
9501081573
9501087920
9501093474
9501098601
9501106353
9501113616
9501120025
9501126922
9501131438
9501137725
9501143340
9501150786
9501160369
9501167571
9501171843
9501181243
9501188506
9501195159
9501202056
9501207366
9501213897
9501219695
9501227751
9501235503
9501242278
9501248381
9501253569
9501261687
9501266265
9501273223
9501279875
9501286162
9501291716
9501297942
9501303801
9501312163
9501318755
9501325041
9501331084
9501337492
9501343657
9501350615
9501357085
9501362883
9501369353
9501376189
9501382780
9501388029
9501393706
9501401457
9501407194
9501413359
9501419584
9501425444
9501431791
9501436796
9501444731
9501450773
9501457304
9501462797
9501470366
9501476164
9501481596
9501490141
9501496550
9501502592
9501509245
9501516081
9501521330
9501529447
9501535673
9501543180
9501549955
9501556669
9501563749
9501570219
9501577604
9501586332
9501591398
9501598112
9501604765
9501611479
9501618070
9501624296
9501631742
9501637907
9501645292
9501651090
9501657621
9501663602
9501670927
9501676176
9501684965
9501692228
9501698514
9501704801
9501709806
9501718900
9501726041
9501732084
9501739591
9501744352
9501751493
9501757230
9501762784
9501769681
9501775724
9501781339
9501787381
9501793302
9501799588
9501805692
9501813077
9501819974
9501823514
9501832914
9501838224
9501843839
9501851407
9501858060
9501864286
9501869046
9501874722
9501880765
9501886929
9501893033
9501897672
9501905362
9501910123
9501917081
9501922635
9501929593
9501934964
9501941983
9501947232
9501952359
9501958707
9501963589
9501968716
9501974698
9501979459
9501986050
9501991421
9501998379
9502004300
9502009915
9502014615
9502023526
9502028409
9502034695
9502040127
9502045804
9502053677
9502058926
9502063870
9502071316
9502079190
9502083767
9502090054
9502096890
9502103176
9502108914
9502114407
9502121121
9502124600
9502131497
9502137356
9502144192
9502151150
9502156338
9502162991
9502167568
9502174404
9502182339
9502186917
9502194973
9502199856
9502206082
9502212429
9502217739
9502222744
9502228542
9502235317
9502240566
9502247707
9502253933
9502260464
9502268337
9502273342
9502280971
9502286098
9502294094
9502298183
9502305508
9502312588
9502318569
9502326015
9502332363
9502339687
9502345485
9502351833
9502358669
9502363735
9502371059
9502377590
9502384182
9502390285
9502396206
9502399868
9502407863
9502416469
9502421352
9502428432
9502434352
9502440883
9502448207
9502453456
9502458522
9502467433
9502473903
9502478664
9502485744
9502492030
9502497951
9502504299
9502512904
9502516811
9502524989
9502531337
9502537502
9502544643
9502554347
9502561122
9502565639
9502572658
9502577724
9502585353
9502589381
9502597865
9502605250
9502612269
9502618495
9502625331
9502631556
9502636928
9502645411
9502653163
9502659633
9502666102
9502672877
9502679469
9502684535
9502692408
9502699733
9502706019
9502713771
9502717982
9502726100
9502732814
9502740199
9502745692
9502751307
9502759852
9502763880
9502772608
9502779322
9502786830
9502794825
9502801112
9502806849
9502812220
9502820277
9502824122
9502833643
9502841029
9502847742
9502854884
9502859766
9502867640
9502873011
9502881312
9502887537
9502895289
9502902369
9502908533
9502914759
9502919642
9502927149
9502932337
9502938318
9502944971
9502950464
9502956568
9502962488
9502968103
9502976038
9502981287
9502987513
9502993860
9503000208
9503007288
9503012476
9503019922
9503025110
9503032190
9503037683
9503044580
9503048670
9503056116
9503061975
9503069177
9503074671
9503081140
9503087854
9503094690
9503100244
9503105676
9503113245
9503118738
9503124658
9503130823
9503135889
9503141931
9503149133
9503154626
9503159875
9503166345
9503172327
9503178857
9503184289
9503190881
9503196374
9503204309
9503207849
9503216272
9503220971
9503228235
9503233545
9503238611
9503246362
9503252221
9503257898
9503262841
9503267602
9503275171
9503280908
9503286279
9503291345
9503296777
9503303674
9503308923
9503315454
9503322351
9503326501
9503333398
9503338525
9503344873
9503353051
9503358666
9503363610
9503369470
9503375756
9503380944
9503388146
9503394616
9503401696
9503407739
9503412988
9503420617
9503423974
9503432519
9503439538
9503446496
9503452355
9503457543
9503466027
9503470055
9503478051
9503484521
9503491418
9503496850
9503503869
9503509850
9503517174
9503524071
9503530480
9503535729
9503543908
9503549035
9503555138
9503559960
9503568627
9503575097
9503581749
9503588952
9503595482
9503601281
9503606285
9503613549
9503621544
9503628136
9503633568
9503639550
9503646996
9503651940
9503659203
9503665917
9503672142
9503676048
9503683800
9503691246
9503696739
9503703758
9503710167
9503716515
9503724022
9503731407
9503735680
9503743675
9503751244
9503756920
9503765587
9503771385
9503778160
9503784813
9503790733
9503799095
9503806724
9503812767
9503819114
9503825279
9503832176
9503837303
9503845299
9503850364
9503859398
9503865562
9503871849
9503878502
9503883262
9503890953
9503896568
9503903709
9503909996
9503916038
9503922508
9503929466
9503936424
9503944541
9503951621
9503958091
9503964500
9503970786
9503975791
9503986900
9503994468
9504002158
9504007713
9504015220
9504022361
9504027793
9504034995
9504041099
9504047874
9504055686
9504060508
9504068748
9504075706
9504080527
9504088279
9504096274
9504102317
9504107261
9504114219
9504120139
9504125937
9504132956
9504137595
9504144797
9504149741
9504156760
9504162986
9504168662
9504174765
9504182090
9504188498
9504194541
9504200705
9504205527
9504212790
9504218405
9504224814
9504231162
9504236472
9504242942
9504248923
9504254538
9504260886
9504265830
9504272727
9504280234
9504283774
9504291403
9504297507
9504301535
9504309226
9504316855
9504322653
9504328329
9504334433
9504340598
9504345602
9504353110
9504359885
9504366110
9504371847
9504375632
9504383810
9504388388
9504395346
9504401571
9504407492
9504413046
9504417929
9504424643
9504429770
9504435324
9504441488
9504446554
9504453329
9504457663
9504464438
9504469626
9504475424
9504482260
9504487936
9504495077
9504498495
9504506918
9504512045
9504518270
9504524740
9504529684
9504537252
9504543051
9504547323
9504554952
9504560568
9504567343
9504573812
9504579061
9504585470
9504592001
9504598959
9504606161
9504611959
9504619161
9504623617
9504631002
9504636007
9504641500
9504647176
9504655355
9504661581
9504667623
9504673971
9504680501
9504687215
9504691976
9504699483
9504704549
9504712179
9504719015
9504725240
9504732137
9504737569
9504746419
9504752401
9504758748
9504765889
9504771016
9504778768
9504784566
9504791219
9504796285
9504805196
9504811238
9504816854
9504824727
9504831014
9504838399
9504846211
9504852803
9504859090
9504865987
9504873189
9504878987
9504888875
9504895589
9504900166
9504908711
9504913655
9504920979
9504927693
9504934163
9504941060
9504946492
9504953511
9504958516
9504965596
9504970357
9504982014
9504988667
9504993184
9505000386
9505005696
9505012959
9505017903
9505027241
9505033650
9505040242
9505045552
9505052083
9505058308
9505064412
9505071858
9505077595
9505083455
9505089314
9505095600
9505102253
9505108601
9505115559
9505122395
9505128865
9505132649
9505140156
9505145405
9505153584
9505160420
9505165730
9505172016
9505178181
9505185078
9505189777
9505195759
9505203571
9505210529
9505216389
9505222370
9505228596
9505232990
9505240437
9505246052
9505253498
9505260395
9505264851
9505271992
9505276325
9505283344
9505289814
9505298298
9505303608
9505309345
9505314838
9505320392
9505326496
9505331928
9505339008
9505345783
9505351642
9505358600
9505364887
9505370807
9505376850
9505383991
9505391559
9505395893
9505402240
9505408588
9505414691
9505420490
9505429096
9505435260
9505440998
9505447284
9505452533
9505459796
9505466754
9505472980
9505479266
9505484821
9505490375
9505496478
9505503314
9505509967
9505513629
9505520038
9505523151
9505531757
9505537372
9505542804
9505549579
9505554523
9505560809
9505566486
9505571857
9505575030
9505582355
9505589374
9505594867
9505601581
9505606585
9505611712
9505619037
9505624896
9505631488
9505637835
9505643268
9505649615
9505653949
9505660663
9505667315
9505672931
9505680194
9505684771
9505690753
9505697894
9505703936
9505709979
9505714862
9505721881
9505725177
9505733966
9505740374
9505746966
9505753253
9505758563
9505766375
9505772601
9505779070
9505785418
9505790667
9505798602
9505803484
9505810687
9505815752
9505823138
9505827410
9505834673
9505843523
9505848528
9505856097
9505860674
9505867327
9505873492
9505879717
9505888933
9505894427
9505900957
9505907732
9505915117
9505920122
9505927691
9505935015
9505941362
9505945269
9505953875
9505960527
9505966936
9505974016
9505980364
9505988726
9505994951
9506001299
9506008745
9506013201
9506021074
9506026445
9506034502
9506040911
9506047014
9506053240
9506060320
9506065813
9506073076
9506080156
9506083757
9506092790
9506097917
9506104021
9506110857
9506116106
9506122942
9506130510
9506136491
9506142534
9506149736
9506155900
9506161333
9506169267
9506175432
9506181718
9506188066
9506192827
9506199541
9506204484
9506212114
9506217485
9506224931
9506229265
9506237565
9506245256
9506252092
9506260514
9506267717
9506274369
9506280839
9506287492
9506293107
9506301225
9506309159
9506315690
9506326066
9506332902
9506341264
9506345780
9506354264
9506361711
9506368302
9506374406
9506380509
9506387101
9506393571
9506400224
9506405290
9506411759
9506418351
9506423051
9506429276
9506434953
9506440263
9506446183
9506455094
9506461137
9506466202
9506471757
9506478837
9506485123
9506490311
9506496354
9506503861
9506509903
9506515458
9506521561
9506525895
9506533463
9506543229
9506550126
9506556839
9506564042
9506569901
9506577042
9506584000
9506590042
9506596939
9506603714
9506607193
9506614151
9506620804
9506626969
9506632584
9506636978
9506644608
9506651016
9506655472
9506662552
9506667679
9506674027
9506679581
9506685379
9506691055
9506695877
9506702774
9506709793
9506715714
9506721390
9506725174
9506731827
9506736221
9506743057
9506747818
9506754532
9506760452
9506765701
9506771683
9506775589
9506781692
9506787491
9506793716
9506799576
9506804642
9506810745
9506815201
9506822220
9506827774
9506833938
9506840896
9506846267
9506853653
9506860000
9506866226
9506872757
9506878616
9506885391
9506890029
9506896987
9506901748
9506908828
9506917190
9506922256
9506930923
9506935989
9506941970
9506947524
9506955947
9506962478
9506969253
9506975295
9506980483
9506987869
9506995925
9507001052
9507008804
9507015273
9507021438
9507026504
9507033767
9507038406
9507047073
9507053847
9507060317
9507067153
9507074172
9507080398
9507085647
9507093764
9507101943
9507108046
9507116164
9507121230
9507128554
9507134597
9507142043
9507148818
9507153823
9507161086
9507166091
9507173720
9507179030
9507185500
9507192458
9507200331
9507203932
9507211684
9507217848
9507223525
9507230849
9507235793
9507242873
9507248671
9507256972
9507261122
9507268874
9507276442
9507282912
9507291151
9507297438
9507303358
9507308546
9507314467
9507321242
9507327101
9507334914
9507339735
9507347121
9507352064
9507358473
9507364271
9507371718
9507379103
9507386122
9507391615
9507397841
9507403700
9507409804
9507416273
9507423536
9507429579
9507437697
9507444044
9507451246
9507457899
9507464125
9507469923
9507478346
9507484877
9507490919
9507496290
9507502027
9507509352
9507516554
9507522413
9507528150
9507535780
9507542982
9507550001
9507556288
9507563795
9507570081
9507576124
9507582105
9507588636
9507594434
9507599683
9507606031
9507610975
9507617384
9507623487
9507628187
9507635145
9507638563
9507647291
9507654310
9507661451
9507667798
9507673902
9507680005
9507685438
9507693372
9507700940
9507706067
9507712049
9507718091
9507723096
9507729322
9507735608
9507741895
9507748609
9507754407
9507759961
9507763501
9507770887
9507777967
9507783765
9507789868
9507794751
9507799695
9507804334
9507812757
9507817945
9507823865
9507829602
9507834607
9507841199
9507847119
9507852307
9507857984
9507863965
9507870862
9507876538
9507882459
9507888135
9507892590
9507898389
9507905103
9507911206
9507916699
9507922375
9507927930
9507933057
9507939526
9507945630
9507952405
9507960095
9507966809
9507972729
9507976208
9507983838
9507990735
9507996533
9508002636
9508007275
9508015515
9508021618
9508026867
9508034314
9508039380
9508045971
9508050976
9508057080
9508062695
9508069714
9508077160
9508081494
9508088635
9508094128
9508100415
9508106213
9508113842
9508121594
9508128430
9508134472
9508140576
9508145641
9508151806
9508159252
9508166699
9508173779
9508180920
9508186108
9508192944
9508199230
9508207165
9508213146
9508221752
9508228832
9508234814
9508242626
9508248302
9508254955
9508261059
9508268322
9508274669
9508281139
9508286632
9508291576
9508299450
9508307201
9508314220
9508319774
9508325634
9508332225
9508337963
9508345775
9508352733
9508361827
9508367748
9508374279
9508380992
9508387828
9508393566
9508399059
9508407787
9508414318
9508420543
9508426708
9508432140
9508439098
9508446300
9508452403
9508458446
9508464732
9508472240
9508477855
9508483653
9508491588
9508497874
9508504100
9508509105
9508516307
9508520824
9508528575
9508534801
9508541881
9508548228
9508555430
9508559459
9508568614
9508575633
9508583873
9508590526
9508595897
9508603404
9508610240
9508617259
9508623607
9508631175
9508638072
9508643565
9508652354
9508660167
9508665232
9508672251
9508679637
9508688121
9508694346
9508701304
9508706614
9508714854
9508720347
9508727793
9508734385
9508742564
9508747996
9508756175
9508760203
9508768137
9508773325
9508781138
9508787180
9508792796
9508800608
9508807566
9508813975
9508820017
9508826853
9508832957
9508839182
9508846323
9508849802
9508857371
9508864695
9508870554
9508877695
9508883982
9508889475
9508896433
9508902414
9508908945
9508913950
9508921640
9508928782
9508934397
9508939524
9508945566
9508953012
9508958261
9508964975
9508971018
9508976450
9508982248
9508987802
9508995371
9509002024
9509007151
9509013010
9509019296
9509024362
9509031503
9509037058
9509042490
9509047739
9509054758
9509059030
9509066416
9509072336
9509078439
9509084055
9509088754
9509095529
9509099069
9509106027
9509112802
9509117075
9509124033
9509128976
9509135568
9509138620
9509145273
9509152658
9509159860
9509165170
9509171701
9509176523
9509182321
9509187631
9509195505
9509201364
9509206857
9509212838
9509218942
9509224252
9509231088
9509236093
9509243905
9509249398
9509256417
9509262216
9509267343
9509275582
9509282663
9509289071
9509296090
9509300607
9509308541
9509314523
9509321725
9509328439
9509335458
9509342538
9509350411
9509356759
9509361825
9509369454
9509374764
9509383065
9509390755
9509395760
9509402535
9509409676
9509414742
9509419747
9509427621
9509434518
9509441537
9509447274
9509453255
9509459542
9509465645
9509472237
9509477975
9509485299
9509490426
9509499764
9509505684
9509512398
9509519967
9509523934
9509532967
9509539864
9509544930
9509552010
9509558602
9509564522
9509572945
9509577767
9509584481
9509590584
9509594551
9509603524
9509609688
9509616280
9509622383
9509627510
9509635567
9509641915
9509648506
9509653755
9509660042
9509667000
9509672432
9509679756
9509686348
9509692452
9509698738
9509705452
9509712898
9509717903
9509725349
9509731880
9509738289
9509745247
9509752449
9509759468
9509765022
9509772713
9509777962
9509785103
9509792244
9509797554
9509805793
9509813423
9509817634
9509826729
9509830818
9509839668
9509848518
9509854011
9509862617
9509868843
9509877815
9509882453
9509891304
9509895637
9509904243
9509914497
9509919624
9509926704
9509933051
9509938239
9509944526
9509950935
9509958930
9509963996
9509969795
9509975471
9509981879
9509987373
9509993598
9509999091
9510005988
9510010871
9510018317
9510024299
9510030585
9510036628
9510043342
9510050056
9510056159
9510061957
9510065986
9510073737
9510080268
9510087287
9510094489
9510101020
9510106513
9510113044
9510119147
9510124762
9510131293
9510137519
9510142768
9510148688
9510155036
9510161200
9510166754
9510171881
9510178229
9510182807
9510189582
9510195319
9510200568
9510205329
9510212653
9510218939
9510222968
9510230170
9510235541
9510240729
9510247748
9510254035
9510259039
9510265448
9510271246
9510276862
9510284247
9510289923
9510295844
9510300787
9510307013
9510313361
9510318854
9510324957
9510331061
9510337286
9510342718
9510349921
9510356146
9510361639
9510368353
9510373602
9510381720
9510387518
9510393316
9510399420
9510405340
9510411749
9510416327
9510425787
9510431952
9510437384
9510443914
9510451605
9510456366
9510465460
9510471441
9510478338
9510485479
9510493414
9510499151
9510505194
9510511175
9510518743
9510525091
9510531561
9510538275
9510544622
9510551031
9510557806
9510564336
9510569524
9510578619
9510585149
9510592474
9510599065
9510605474
9510612920
9510619817
9510625677
9510632085
9510638860
9510645391
9510651861
9510660772
9510666021
9510672002
9510677556
9510684270
9510691350
9510696966
9510704778
9510710454
9510716863
9510724248
9510730352
9510736333
9510741155
9510748845
9510754033
9510761357
9510767949
9510773931
9510782292
9510788274
9510795476
9510802373
9510808293
9510814153
9510820561
9510827825
9510834050
9510840337
9510847966
9510853887
9510860600
9510866582
9510874455
9510879948
9510887517
9510891789
9510899480
9510906682
9510911748
9510919499
9510925053
9510933476
9510939091
9510946843
9510953984
9510960393
9510965520
9510971684
9510977788
9510986760
9510993351
9510998478
9511005925
9511013005
9511019291
9511027897
9511036442
9511043034
9511051335
9511057927
9511064579
9511072880
9511078739
9511085148
9511091496
9511099613
9511106571
9511112187
9511118717
9511123844
9511131535
9511138188
9511144108
9511148991
9511154606
9511161259
9511166203
9511172550
9511177494
9511185123
9511190128
9511196110
9511203312
9511209171
9511216190
9511222721
9511228458
9511233219
9511239933
9511243351
9511253483
9511260197
9511266056
9511272159
9511278751
9511285770
9511292728
9511297428
9511303837
9511309452
9511315250
9511321293
9511327274
9511331668
9511337955
9511344059
9511349552
9511354801
9511359989
9511366092
9511370243
9511376651
9511381473
9511388736
9511394596
9511399784
9511405399
9511410282
9511417056
9511423587
9511429752
9511435489
9511441226
9511447147
9511452945
9511459171
9511466068
9511471195
9511477359
9511482974
9511488406
9511492923
9511500858
9511507449
9511513248
9511520816
9511525394
9511532046
9511538577
9511545657
9511551944
9511557437
9511564456
9511568973
9511576785
9511583438
9511590030
9511596988
9511602725
9511609317
9511616336
9511621402
9511632266
9511639956
9511647342
9511652407
9511659854
9511664920
9511672488
9511678836
9511684451
9511691226
9511697146
9511705508
9511710452
9511716433
9511721560
9511730166
9511737002
9511743594
9511751162
9511756289
9511763613
9511769900
9511776370
9511782046
9511788577
9511796206
9511801455
9511807925
9511813113
9511820742
9511828738
9511834780
9511841250
9511847658
9511852846
9511860171
9511867006
9511871889
9511880800
9511887270
9511892031
9511899111
9511904116
9511911196
9511917238
9511925356
9511932680
9511937197
9511943850
9511950197
9511956057
9511961550
9511969850
9511974184
9511982302
9511988954
9511995607
9512001650
9512006899
9512014101
9512021303
9512027651
9512033205
9512040041
9512045412
9512053835
9512061098
9512067323
9512073610
9512078066
9512084047
9512089662
9512096803
9512102907
9512110048
9512115846
9512123903
9512130617
9512137514
9512144166
9512151185
9512160341
9512167543
9512173036
9512181825
9512188173
9512195192
9512201844
9512209291
9512215211
9512224366
9512232118
9512239137
9512246095
9512253846
9512260438
9512265565
9512272584
9512277345
9512283143
9512288026
9512295350
9512302796
9512308778
9512314393
9512325623
9512332154
9512339723
9512346253
9512352296
9512358704
9512364930
9512368531
9512377076
9512382935
9512387818
9512394471
9512401673
9512407593
9512412293
9512418519
9512423218
9512430543
9512437012
9512442200
9512449586
9512455445
9512461426
9512466248
9512473206
9512480591
9512486817
9512492615
9512498108
9512503968
9512507935
9512515015
9512520386
9512526978
9512532898
9512537903
9512544800
9512549134
9512555603
9512561829
9512567688
9512572449
9512578125
9512583985
9512587097
9512593628
9512600220
9512605774
9512611572
9512617005
9512622498
9512628113
9512633179
9512641052
9512647034
9512651917
9512657654
9512663757
9512669556
9512674377
9512682251
9512687622
9512694702
9512699463
9512707825
9512713745
9512720581
9512726868
9512733520
9512739929
9512744079
9512752014
9512758117
9512765075
9512772033
9512778076
9512783386
9512789367
9512795044
9512801086
9512808960
9512815063
9512821106
9512827148
9512833191
9512839599
9512846313
9512851867
9512860107
9512863708
9512872558
9512879089
9512885620
9512892089
9512896911
9512904907
9512910217
9512916137
9512927734
