9399766830
9399817245
9399824386
9399829452
9399836654
9399843490
9399850325
9399857344
9399864058
9399872298
9399879317
9399886885
9399892501
9399899031
9399904952
9399913802
9399920150
9399928816
9399935713
9399944564
9399951888
9399960188
9399969649
9399977400
9399985030
9399990828
9399999983
9400004622
9400016219
9400020857
9400034163
9400040694
9400051375
9400060103
9400069075
9400077742
9400084639
9400091841
9400099104
9400105818
9400114302
9400122053
9400128706
9400137068
9400145247
9400153486
9400161177
9400168257
9400176130
9400183088
9400190412
9400196394
9400203657
9400208967
9400217268
9400225080
9400234602
9400242658
9400249555
9400253645
9400262373
9400270368
9400277082
9400286054
9400291731
9400300031
9400305280
9400313154
9400319074
9400328291
9400337202
9400344587
9400350812
9400358198
9400365766
9400370832
9400378278
9400386213
9400395673
9400427778
9400436200
9400444928
9400451764
9400458722
9400466047
9400473249
9400482099
9400489545
9400498029
9400504193
9400512067
9400519513
9400528241
9400534223
9400543683
9400550885
9400558454
9400567059
9400574384
9400581403
9400588727
9400597089
9400606549
9400613385
9400622968
9400631085
9400638592
9400650128
9400658185
9400666302
9400675152
9400683270
9400690350
9400698407
9400705426
9400714642
9400722027
9400726300
9400735699
9400742047
9400751080
9400758709
9400766217
9400774273
9400781659
9400785992
9400795269
9400803631
9400811138
9400819012
9400828045
9400834576
9400843121
9400850872
9400858441
9400867535
9400875103
9400881085
9400889507
9400898602
9400906719
9400914837
9400920574
9400930218
9400936260
9400945293
9400951641
9400960369
9400966473
9400975872
9400983074
9400990154
9400997539
9401005230
9401009746
9401019512
9401027263
9401034832
9401043071
9401050579
9401056743
9401064434
9401072307
9401079692
9401088298
9401095195
9401105327
9401110881
9401118999
9401126567
9401134502
9401142497
9401150371
9401156780
9401165264
9401171611
9401180705
9401187175
9401195720
9401201640
9401210979
9401215434
9401224651
9401231792
9401239421
9401246867
9401254314
9401262614
9401270183
9401277629
9401284953
9401291850
9401299541
9401306743
9401314067
9401321452
9401328715
9401335795
9401343303
9401350444
9401361735
9401368449
9401377360
9401385722
9401392497
9401402079
9401410014
9401417765
9401426066
9401433085
9401440287
9401447550
9401455119
9401462504
9401469584
9401477335
9401484110
9401491374
9401498576
9401505656
9401513163
9401520304
9401527567
9401535685
9401543314
9401548746
9401557108
9401565409
9401574137
9401581095
9401589884
9401596476
9401605265
9401611429
9401618754
9401624857
9401634012
9401640360
9401648539
9401657877
9401665201
9401671366
9401679056
9401687601
9401695047
9401701334
9401708841
9401716837
9401723795
9401731790
9401739725
9401746378
9401751810
9401760782
9401768839
9401777811
9401784708
9401792093
9401799722
9401807169
9401814310
9401822183
9401832132
9401839395
9401847085
9401854471
9401861734
9401868753
9401875955
9401884439
9401892068
9401898660
9401907388
9401914651
9401923074
9401930337
9401938333
9401946267
9401954202
9401961404
9401969155
9401977090
9401984475
9401991616
9402001016
9402008096
9402015359
9402022439
9402030984
9402036843
9402046060
9402054238
9402062722
9402070901
9402078713
9402086221
9402095010
9402103310
9402111184
9402120156
9402125344
9402136880
9402141701
9402150979
9402157448
9402169228
9402177102
9402184853
9402191628
9402199318
9402207009
9402215371
9402224587
9402228798
9402238442
9402245766
9402252236
9402260048
9402266091
9402273476
9402281105
9402287453
9402295693
9402300698
9402309243
9402312416
9402321083
9402328713
9402335610
9402341896
9402348366
9402354530
9402361061
9402366860
9402374977
9402381630
9402386635
9402394020
9402400063
9402407448
9402416908
9402423988
9402429726
9402435890
9402442055
9402449684
9402457741
9402462379
9402470619
9402476845
9402482643
9402489601
9402497535
9402504310
9402509804
9402516029
9402524757
9402530616
9402537758
9402545448
9402552406
9402559242
9402566444
9402573951
9402580970
9402590980
9402598670
9402606605
9402614173
9402621620
9402627052
9402637428
9402645362
9402653602
9402659095
9402666236
9402675514
9402680885
9402688453
9402698158
9402705116
9402716590
9402723548
9402732154
9402739783
9402748511
9402754737
9402761451
9402769996
9402777137
9402783607
9402791053
9402799964
9402805579
9402813453
9402822181
9402828772
9402834998
9402843787
9402853247
9402860144
9402868262
9402874121
9402881690
9402891028
9402899451
9402906165
9402913062
9402920752
9402928809
9402936194
9402943457
9402952307
9402959448
9402966101
9402973425
9402979590
9402986548
9402994788
9403001196
9403008521
9403014319
9403018591
9403025549
9403028784
9403036963
9403044775
9403050024
9403058752
9403063879
9403069006
9403075354
9403083044
9403089392
9403095068
9403100989
9403106543
9403113257
9403118811
9403125647
9403133703
9403138647
9403144323
9403149389
9403156347
9403162207
9403169775
9403176245
9403181616
9403187414
9403193212
9403199743
9403205847
9403212011
9403218054
9403223486
9403228613
9403233373
9403239721
9403246435
9403252294
9403258642
9403264074
9403269079
9403276464
9403282140
9403289220
9403295873
9403301244
9403306310
9403312780
9403318395
9403323705
9403329504
9403335424
9403340551
9403345373
9403352087
9403359594
9403365392
9403371007
9403376623
9403382970
9403388036
9403394323
9403403295
9403408727
9403417821
9403423375
9403428380
9403434484
9403441930
9403448156
9403455114
9403459630
9403467015
9403473058
9403478978
9403486974
9403493199
9403497167
9403504857
9403510778
9403517125
9403524632
9403532323
9403538426
9403544957
9403552098
9403558263
9403565831
9403573888
9403580113
9403587621
9403592015
9403599828
9403607823
9403614232
9403620518
9403627232
9403632542
9403639683
9403644322
9403652501
9403659459
9403663853
9403672398
9403678380
9403682957
9403691136
9403697789
9403705235
9403712315
9403717747
9403728062
9403733555
9403739964
9403745823
9403753270
9403758641
9403766331
9403772251
9403780430
9403787510
9403793919
9403803990
9403811802
9403819065
9403825169
9403832188
9403837803
9403844273
9403850437
9403856175
9403864781
9403872654
9403879063
9403885899
9403892674
9403901463
9403909275
9403915928
9403922520
9403930210
9403937778
9403946934
9403952976
9403958835
9403965854
9403971653
9403979465
9403986301
9403992954
9404000828
9404006870
9404012363
9404019809
9404024875
9404031772
9404038608
9404045139
9404053196
9404058445
9404064731
9404073703
9404078952
9404087131
9404092441
9404096530
9404102634
9404108859
9404114658
9404122531
9404129245
9404134738
9404139499
9404145603
9404151157
9404158786
9404164523
9404169162
9404175876
9404181857
9404187228
9404193576
9404198764
9404207431
9404212192
9404219272
9404225986
9404231235
9404237277
9404243136
9404248691
9404256076
9404262240
9404267306
9404273288
9404280490
9404289279
9404294223
9404299350
9404306064
9404312289
9404318942
9404326754
9404331759
9404338473
9404344027
9404349582
9404353610
9404361727
9404367587
9404373080
9404378756
9404385043
9404390109
9404395053
9404401583
9404409030
9404413668
9404418002
9404425021
9404430758
9404438571
9404445345
9404450411
9404456820
9404463473
9404468722
9404474825
9404480135
9404487765
9404494601
9404499850
9404505648
9404512850
9404518587
9404526156
9404530733
9404538729
9404546297
9404551790
9404557894
9404565584
9404569857
9404577242
9404583346
9404589022
9404594637
9404601229
9404608431
9404614107
9404620089
9404627352
9404634127
9404641268
9404647860
9404653902
9404660372
9404667574
9404674227
9404679354
9404687105
9404693514
9404698763
9404706392
9404711031
9404718538
9404725130
9404730989
9404738802
9404744417
9404750032
9404756685
9404764497
9404770052
9404776643
9404783174
9404790071
9404796419
9404802278
9404812349
9404821260
9404828889
9404836153
9404842195
9404847993
9404855867
9404862642
9404868440
9404875703
9404882905
9404889192
9404896333
9404901277
9404909028
9404914460
9404920381
9404926484
9404933259
9404941194
9404947969
9404955659
9404963960
9404967988
9404976716
9404984040
9404989961
9404997224
9405002290
9405011140
9405016328
9405023286
9405030976
9405037873
9405044770
9405051301
9405057526
9405064057
9405070771
9405075105
9405084382
9405089875
9405095673
9405102387
9405110017
9405116242
9405123688
9405128388
9405136323
9405143159
9405149201
9405157624
9405163056
9405171540
9405177765
9405183320
9405188813
9405194794
9405202607
9405208405
9405213837
9405221039
9405227143
9405231232
9405238923
9405246247
9405251984
9405256684
9405264923
9405270111
9405276947
9405284882
9405290741
9405296112
9405301728
9405307221
9405313446
9405320160
9405326447
9405332184
9405338165
9405344879
9405348724
9405357514
9405363922
9405373566
9405378571
9405384552
9405391327
9405396637
9405401154
9405406158
9405413238
9405418854
9405423675
9405429779
9405437286
9405444366
9405449188
9405454620
9405460541
9405466888
9405471710
9405479522
9405485016
9405494049
9405500763
9405505523
9405513336
9405519012
9405524017
9405530426
9405536895
9405541717
9405548065
9405553436
9405560638
9405563201
9405571868
9405579010
9405581939
9405589752
9405598846
9405605010
9405609710
9405615997
9405620819
9405627593
9405634307
9405640838
9405647064
9405652984
9405656890
9405664886
9405671233
9405678191
9405684844
9405689971
9405696685
9405703033
9405710906
9405717376
9405724151
9405730620
9405736907
9405743926
9405749602
9405756194
9405764373
9405770049
9405777068
9405783416
9405792388
9405799773
9405804534
9405813323
9405818694
9405824309
9405830657
9405839324
9405849395
9405855193
9405863066
9405870452
9405877654
9405886199
9405891326
9405897978
9405903716
9405910430
9405916655
9405922515
9405930632
9405938384
9405944060
9405949919
9405955840
9405964140
9405967680
9405977324
9405984282
9405990324
9405998625
9406005705
9406013457
9406020537
9406025481
9406031767
9406038481
9406043669
9406050993
9406056730
9406067167
9406072416
9406079863
9406085173
9406090971
9406097441
9406106718
9406112700
9406117888
9406124052
9406129789
9406137236
9406143827
9406150419
9406157133
9406164396
9406170561
9406177519
9406184049
9406192411
9406199613
9406206083
9406213835
9406217436
9406228300
9406235075
9406240446
9406249723
9406256620
9406261503
9406269743
9406276945
9406283109
9406290250
9406294340
9406300321
9406305082
9406312040
9406318204
9406323576
9406330289
9406337858
9406343351
9406348295
9406354398
9406361783
9406367338
9406372404
9406380216
9406384855
9406391813
9406398465
9406407071
9406414274
9406420499
9406425748
9406431791
9406438321
9406444425
9406449674
9406456021
9406461576
9406467618
9406473538
9406479215
9406485868
9406491178
9406497037
9406502774
9406509061
9406514005
9406522244
9406528409
9406533719
9406538663
9406546231
9406551541
9406557767
9406563687
9406570035
9406575528
9406583096
9406587857
9406594266
9406600308
9406607815
9406612576
9406619534
9406625882
9406631314
9406637540
9406643277
9406649808
9406655118
9406660916
9406668240
9406674649
9406680691
9406687771
9406693936
9406698941
9406706082
9406711880
9406718411
9406725491
9406731167
9406737454
9406742764
9406749783
9406755459
9406763272
9406769863
9406775051
9406781582
9406786648
9406794644
9406800991
9406808132
9406815579
9406822781
9406828579
9406836208
9406842007
9406849575
9406856350
9406863064
9406871365
9406878384
9406885159
9406892361
9406898525
9406907131
9406911404
9406921230
9406929348
9406935451
9406943020
9406949489
9406956142
9406961574
9406969692
9406975246
9406983242
9406991115
9406997402
9407003566
9407009975
9407016506
9407022915
9407029201
9407035671
9407041896
9407048427
9407055080
9407059963
9407068935
9407074306
9407082057
9407090175
9407097316
9407104213
9407109889
9407116908
9407122829
9407129848
9407136562
9407141933
9407149623
9407155116
9407162807
9407169521
9407175868
9407179652
9407187770
9407196010
9407202480
9407207851
9407214442
9407221461
9407227809
9407233974
9407240443
9407246913
9407253261
9407259852
9407266200
9407272365
9407279262
9407284938
9407292079
9407297755
9407304713
9407310389
9407317408
9407323146
9407330165
9407337489
9407343226
9407350245
9407355555
9407362391
9407368251
9407376612
9407382472
9407390406
9407400050
9407405482
9407411585
9407420802
9407425013
9407433802
9407440394
9407447657
9407453577
9407459864
9407466273
9407472193
9407477930
9407484278
9407490321
9407497950
9407503870
9407510157
9407516138
9407522303
9407530360
9407537195
9407545191
9407553736
9407560389
9407569300
9407574854
9407581690
9407587183
9407593714
9407600000
9407605005
9407612757
9407618006
9407625208
9407631617
9407640039
9407645716
9407651819
9407658594
9407664820
9407670313
9407674524
9407679407
9407686487
9407695825
9407702173
9407707910
9407712915
9407719629
9407726343
9407733118
9407738733
9407744165
9407748804
9407756250
9407762964
9407768030
9407774011
9407780542
9407785913
9407790796
9407798181
9407804163
9407811365
9407816858
9407823999
9407828515
9407834680
9407840906
9407847680
9407852502
9407858606
9407863916
9407870080
9407876367
9407882165
9407888818
9407895044
9407900171
9407906396
9407913476
9407919030
9407926721
9407933801
9407941125
9407946618
9407953515
9407957971
9407966149
9407971337
9407976281
9407984216
9407991601
9407999230
9408005151
9408012719
9408018273
9408025170
9408030175
9408041100
9408048608
9408053613
9408061974
9408069482
9408076318
9408083031
9408090234
9408096032
9408102868
9408108788
9408115929
9408122765
9408131432
9408138329
9408144738
9408150719
9408158776
9408164513
9408173668
9408179772
9408186242
9408193383
9408199975
9408208153
9408215355
9408223412
9408228539
9408235436
9408242211
9408248680
9408253929
9408262657
9408269249
9408275414
9408281212
9408286034
9408292687
9408300011
9408306236
9408313500
9408320274
9408326012
9408333031
9408341087
9408347862
9408353233
9408357811
9408365685
9408372337
9408378075
9408387291
9408393211
9408398521
9408404381
9408410179
9408417686
9408424705
9408431908
9408438560
9408442955
9408452232
9408458153
9408464866
9408472374
9408480674
9408486473
9408492210
9408501426
9408507896
9408514061
9408520897
9408529014
9408535911
9408541832
9408549034
9408553733
9408562095
9408568626
9408574424
9408578941
9408589256
9408595725
9408605186
9408613059
9408619773
9408625388
9408630027
9408638816
9408645469
9408651450
9408658042
9408664695
9408672141
9408677573
9408681968
9408690574
9408696189
9408702170
9408708518
9408714072
9408719810
9408726707
9408733359
9408740684
9408745261
9408752219
9408758323
9408765769
9408770713
9408778037
9408784507
9408791953
9408797507
9408804770
9408810263
9408815818
9408821860
9408826682
9408832907
9408837668
9408843833
9408848899
9408855124
9408860678
9408867148
9408872336
9408877890
9408884238
9408891196
9408895774
9408901389
9408906455
9408912070
9408918051
9408922690
9408930075
9408934714
9408940695
9408945944
9408951559
9408959128
9408965109
9408972739
9408977438
9408984091
9408988364
9408996054
9409003378
9409008322
9409016318
9409020102
9409028769
9409035849
9409041830
9409048788
9409056540
9409060507
9409066672
9409073446
9409081869
9409089377
9409097555
9409105001
9409112021
9409119589
9409125631
9409132650
9409140707
9409146322
9409151754
9409158651
9409166830
9409173361
9409180868
9409185995
9409193685
9409198446
9409207113
9409213461
9409219442
9409225912
9409233541
9409240682
9409248434
9409253683
9409261800
9409268758
9409274068
9409280965
9409285970
9409295492
9409302022
9409308065
9409313436
9409320577
9409327535
9409334798
9409341878
9409347616
9409354940
9409359640
9409368245
9409374166
9409381795
9409388021
9409393697
9409401632
9409407064
9409414571
9409419881
9409427205
9409434102
9409443196
9409451802
9409459493
9409466573
9409472737
9409480001
9409485677
9409492024
9409499349
9409507039
9409513509
9409520162
9409526631
9409532185
9409539388
9409547566
9409555013
9409561238
9409568135
9409575581
9409582051
9409589131
9409596333
9409605916
9409612263
9409618001
9409624776
9409633809
9409643635
9409650899
9409661702
9409670796
9409676228
9409681233
9409685872
9409693806
9409699299
9409705464
9409711934
9409716633
9409724568
9409731770
9409738423
9409744953
9409750752
9409756001
9409763020
9409767720
9409776509
9409784260
9409791340
9409797810
9409804341
9409809834
9409815937
9409824116
9409829243
9409833576
9409839497
9409845661
9409852314
9409858906
9409863911
9409870563
9409877644
9409882465
9409890705
9409896259
9409901508
9409908710
9409914936
9409920490
9409927448
9409933979
9409939045
9409946613
9409951191
9409958210
9409962909
9409969928
9409974750
9409980976
9409986042
9409993427
9410000080
9410005817
9410012592
9410020465
9410025165
9410030414
9410035785
9410042499
9410048419
9410054096
9410061054
9410066303
9410072956
9410078205
9410086444
9410092975
9410099689
9410103473
9410110370
9410117267
9410122455
9410129840
9410137836
9410143878
9410151080
9410157184
9410165057
9410171161
9410175372
9410182391
9410188190
9410194110
9410200519
9410208148
9410217364
9410222552
9410230304
9410236407
9410243976
9410250079
9410255511
9410262958
9410270099
9410277545
9410283038
9410290301
9410298236
9410304522
9410312396
9410317767
9410324725
9410330767
9410336505
9410342974
9410350177
9410355975
9410362078
9410368792
9410374591
9410381243
9410388995
9410393572
9410400958
9410407549
9410414691
9410421282
9410427386
9410433001
9410440386
9410447222
9410453631
9410461504
9410467181
9410475176
9410481463
9410487200
9410495867
9410502825
9410510332
9410518816
9410524798
9410531634
9410537676
9410543841
9410552019
9410557940
9410563738
9410571123
9410575518
9410583696
9410591326
9410597857
9410603899
9410610857
9410616777
9410623980
9410630083
9410637834
9410644121
9410651323
9410657122
9410662737
9410670671
9410678911
9410687700
9410695574
9410701677
9410709184
9410715410
9410721147
9410727922
9410734758
9410740923
9410749040
9410753801
9410761797
9410768632
9410775163
9410783281
9410788530
9410794084
9410799089
9410805559
9410814287
9410821245
9410828203
9410836564
9410841569
9410848344
9410855607
9410861528
9410868730
9410874589
9410879655
9410885881
9410892350
9410898271
9410905656
9410913713
9410919755
9410924272
9410931657
9410939042
9410943009
9410950639
9410955461
9410961869
9410968034
9410973649
9410980668
9410990251
9410994096
9411001054
9411005143
9411011918
9411018083
9411024125
9411030228
9411036149
9411041581
9411046586
9411054398
9411059647
9411065873
9411073014
9411078446
9411083512
9411087846
9411096085
9411101700
9411106095
9411114274
9411119034
9411124894
9411131913
9411137223
9411142533
9411147599
9411152665
9411158402
9411165970
9411172440
9411178666
9411183609
9411192337
9411197647
9411205948
9411213150
9411218521
9411225113
9411232010
9411239151
9411244034
9411252274
9411258316
9411264786
9411271073
9411277970
9411283096
9411289078
9411295670
9411302689
9411309219
9411315201
9411325577
9411331558
9411337479
9411345779
9411350296
9411358597
9411364334
9411373245
9411381119
9411387405
9411394241
9411400101
9411406631
9411415115
9411421768
9411429214
9411433548
9411441910
9411448074
9411454605
9411461258
9411468155
9411473709
9411482193
9411488174
9411493667
9411500381
9411507400
9411513870
9411521377
9411527847
9411535354
9411543899
9411550003
9411556533
9411561477
9411568191
9411574844
9411581680
9411588638
9411596450
9411603347
9411610305
9411615859
9411624343
9411633010
9411639602
9411645278
9411654556
9411662490
9411669143
9411675613
9411682632
9411690810
9411698012
9411704360
9411711074
9411719680
9411729201
9411736953
9411742812
9411750686
9411756240
9411764907
9411772292
9411778029
9411784377
9411792312
9411798659
9411806227
9411811843
9411819960
9411827895
9411835036
9411843215
9411850966
9411858779
9411865615
9411873732
9411880507
9411886550
9411893691
9411900954
9411907424
9411914504
9411919264
9411927321
9411932387
9411939223
9411944289
9411951674
9411959059
9411965834
9411973463
9411978346
9411984633
9411990797
9411997511
9412004957
9412010390
9412016920
9412022597
9412029188
9412036146
9412041334
9412048292
9412053480
9412060438
9412065809
9412072889
9412078138
9412085280
9412090467
9412098341
9412104261
9412110426
9412114088
9412121595
9412127516
9412133070
9412139051
9412144911
9412151380
9412157545
9412163282
9412167921
9412175550
9412181043
9412187391
9412194349
9412200025
9412206007
9412211805
9412217786
9412222120
9412229383
9412235365
9412241956
9412246656
9412253004
9412257764
9412264112
9412268812
9412276502
9412281812
9412287488
9412293836
9412300855
9412307264
9412312208
9412318860
9412327527
9412333814
9412340650
9412346021
9412353040
9412359388
9412365125
9412370557
9412379224
9412385572
9412391553
9412398145
9412404248
9412411267
9412417005
9412423474
9412429700
9412436536
9412442334
9412448987
9412456922
9412463941
9412469739
9412475781
9412482190
9412489514
9412497693
9412503735
9412510754
9412517712
9412523816
9412530408
9412536206
9412543469
9412550793
9412557751
9412564526
9412571606
9412579602
9412585828
9412592663
9412599560
9412605359
9412610852
9412617749
9412626538
9412633557
9412641552
9412646252
9412653332
9412660351
9412667004
9412673108
9412681652
9412686718
9412694287
9412700573
9412706128
9412713757
9412720837
9412726940
9412734204
9412739270
9412746228
9412753735
9412760754
9412767895
9412773937
9412781567
9412788830
9412796398
9412803600
9412807995
9412816418
9412823132
9412829662
9412836987
9412845043
9412854809
9412862255
9412868175
9412874340
9412882152
9412888866
9412894665
9412900890
9412907421
9412915661
9412922802
9412927685
9412936291
9412941845
9412947155
9412954235
9412961559
9412968639
9412978161
9412985302
9412996593
9413005626
9413013439
9413020397
9413027477
9413035045
9413042491
9413049266
9413056102
9413062572
9413067882
9413076854
9413083263
9413089610
9413096507
9413101634
9413107494
9413113353
9413120006
9413124095
9413130931
9413138072
9413143199
9413150340
9413157115
9413162791
9413169261
9413174998
9413180797
9413184947
9413191722
9413198802
9413204600
9413211680
9413215892
9413223460
9413228343
9413233958
9413240794
9413248546
9413253917
9413260203
9413265513
9413270152
9413276683
9413283702
9413289012
9413294078
9413299388
9413305308
9413310374
9413318309
9413323374
9413329905
9413335948
9413339671
9413345957
9413353282
9413358775
9413365061
9413369639
9413378062
9413383250
9413389292
9413395396
9413401316
9413407603
9413414134
9413418955
9413424204
9413429697
9413435801
9413441843
9413446909
9413453440
9413459849
9413465159
9413471018
9413477244
9413483103
9413489390
9413493906
9413502817
9413510508
9413516245
9413523569
9413529856
9413535044
9413541941
9413548899
9413556345
9413563425
9413569346
9413576120
9413582529
9413589060
9413597300
9413603037
9413611216
9413617380
9413623423
9413631906
9413635996
9413644541
9413651499
9413656626
9413664682
9413670236
9413676889
9413683786
9413691538
9413697641
9413705270
9413711191
9413719125
9413726022
9413732431
9413740488
9413747995
9413754343
9413761240
9413768442
9413775033
9413780527
9413788766
9413793039
9413801401
9413809213
9413815195
9413820749
9413827890
9413833688
9413840585
9413846933
9413853891
9413859384
9413864572
9413872323
9413877023
9413884835
9413893197
9413900582
9413907357
9413917367
9413923226
9413928598
9413936532
9413943734
9413950753
9413957772
9413963815
9413970040
9413975350
9413984567
9413990426
9413996407
9414003732
9414009652
9414018136
9414024789
9414030831
9414040475
9414048959
9414056283
9414061959
9414068246
9414075631
9414083382
9414089303
9414095345
9414103951
9414109627
9414116952
9414124032
9414131234
9414138131
9414146370
9414151803
9414159188
9414164864
9414170784
9414178170
9414183541
9414191170
9414197823
9414204048
9414207833
9414215645
9414223213
9414229317
9414235359
9414241585
9414247994
9414254280
9414259102
9414265450
9414271736
9414277901
9414284676
9414290779
9414296822
9414302986
9414309334
9414316048
9414323250
9414328255
9414334969
9414341927
9414347847
9414352791
9414359932
9414366707
9414373299
9414379097
9414385750
9414391914
9414396858
9414403450
9414409248
9414414924
9414420601
9414426033
9414433174
9414437141
9414443794
9414451118
9414457039
9414462166
9414467598
9414475959
9414480781
9414487678
9414497810
9414503242
9414510627
9414515388
9414521125
9414527290
9414534187
9414540657
9414546272
9414552314
9414558601
9414565254
9414570930
9414576484
9414582649
9414588508
9414594184
9414601875
9414607063
9414613715
9414618659
9414627448
9414637031
9414642463
9414650703
9414654121
9414662238
9414665717
9414674872
9414680976
9414686957
9414692756
9414699286
9414705146
9414711677
9414717963
9414722785
9414730903
9414734870
9414742621
9414748053
9414755744
9414761298
9414769355
9414773444
9414782355
9414786139
9414794928
9414801337
9414807807
9414814643
9414821112
9414827399
9414833869
9414840399
9414846747
9414854132
9414858893
9414865851
9414872931
9414879767
9414886847
9414893317
9414898810
9414905707
9414911139
9414919623
9414926886
9414933356
9414937140
9414945502
9414949225
9414958197
9414961859
9414971991
9414979437
9414985968
9414993902
9414998785
9415005743
9415012701
9415018744
9415024969
9415033392
9415038824
9415045965
9415052435
9415058844
9415064886
9415071356
9415080084
9415090094
9415096930
9415103033
9415109747
9415116461
9415123114
9415129095
9415135504
9415142034
9415148504
9415155950
9415160955
9415168218
9415175298
9415180731
9415187200
9415194769
9415199773
9415206731
9415213750
9415219549
9415227239
9415235052
9415240362
9415247686
9415253301
9415261358
9415267522
9415276006
9415282720
9415289251
9415295598
9415302129
9415309636
9415316106
9415322027
9415328801
9415334295
9415340764
9415347844
9415354253
9415360234
9415366826
9415374089
9415379705
9415387334
9415394353
9415401738
9415406743
9415413457
9415419561
9415425603
9415432134
9415439092
9415445867
9415452275
9415457585
9415463811
9415470586
9415476506
9415482427
9415489079
9415495793
9415501653
9415506841
9415514592
9415519841
9415528020
9415533818
9415540044
9415546330
9415552373
9415558110
9415564275
9415571049
9415577763
9415585148
9415590336
9415596867
9415601933
9415609196
9415615727
9415622075
9415628850
9415633366
9415641118
9415645817
9415653325
9415657902
9415664311
9415672306
9415678044
9415683781
9415689213
9415697331
9415702397
9415709599
9415715458
9415722355
9415727238
9415734318
9415737797
9415745732
9415751896
9415759159
9415765385
9415769718
9415776798
9415782902
9415787846
9415794010
9415800480
9415805180
9415811588
9415816898
9415824833
9415828190
9415835148
9415840031
9415847904
9415860477
9415867741
9415874088
9415879093
9415885624
9415892338
9415897526
9415903568
9415908573
9415915775
9415920719
9415927860
9415933963
9415941410
9415947452
9415953312
9415959476
9415965946
9415971378
9415977726
9415984317
9415989872
9415996830
9416002384
9416010746
9416017337
9416023746
9416030094
9416036807
9416044132
9416050723
9416056400
9416062869
9416069339
9416075687
9416082706
9416089908
9416097598
9416102664
9416111148
9416117435
9416123965
9416127872
9416137271
9416141299
9416151736
9416157718
9416164310
9416170291
9416176883
9416182803
9416190005
9416197513
9416204410
9416209598
9416216250
9416222293
9416227664
9416236697
9416243899
9416250247
9416256228
9416263125
9416269168
9416274478
9416283206
9416293948
9416300357
9416308474
9416312564
9416322329
9416329470
9416336733
9416343569
9416349978
9416357058
9416363528
9416370181
9416376711
9416382815
9416389407
9416395937
9416402956
9416408328
9416414797
9416421633
9416428591
9416434450
9416441347
9416447756
9416453127
9416459719
9416467226
9416474062
9416482302
9416488528
9416494021
9416501406
9416507143
9416515383
9416519167
9416527834
9416534731
9416541506
9416548464
9416554934
9416562258
9416568727
9416574831
9416581301
9416587954
9416593325
9416600222
9416606691
9416614077
9416619570
9416627687
9416634706
9416640993
9416648256
9416656496
9416661989
9416669618
9416674867
9416682253
9416687380
9416694582
9416700624
9416706728
9416713258
9416719606
9416725771
9416732057
9416738527
9416744875
9416751100
9416757387
9416762819
9416769166
9416775514
9416781801
9416788209
9416794679
9416802186
9416806947
9416813661
9416820131
9416826906
9416831910
9416839174
9416845887
9416852052
9416858461
9416865052
9416871278
9416876344
9416883241
9416888307
9416895753
9416902101
9416907899
9416913209
9416920228
9416926209
9416933351
9416940125
9416945191
9416952149
9416957032
9416964478
9416970338
9416976075
9416983033
9416988770
9416993958
9416999635
9417005311
9417010987
9417016663
9417025269
9417030457
9417035584
9417042420
9417049256
9417054871
9417060609
9417067200
9417073487
9417081727
9417088196
9417092957
9417100709
9417104188
9417113770
9417119629
9417125733
9417132874
9417137757
9417145203
9417151429
9417157227
9417164551
9417170777
9417175721
9417181641
9417187989
9417194214
9417200623
9417207581
9417213806
9417218567
9417224671
9417229859
9417237000
9417244202
9417252075
9417257507
9417264526
9417270020
9417277283
9417283142
9417292725
9417298828
9417305054
9417311157
9417315918
9417325623
9417333008
9417337707
9417345581
9417351318
9417357056
9417365234
9417371887
9417379944
9417385376
9417391296
9417398437
9417403991
9417411499
9417418823
9417425781
9417431884
9417438415
9417445312
9417449646
9417457153
9417467041
9417474365
9417482116
9417486938
9417496337
9417503356
9417507934
9417516723
9417523620
9417529357
9417536437
9417543212
9417549743
9417557311
9417562805
9417568298
9417576293
9417585815
9417593200
9417599365
9417605163
9417614867
9417620727
9417629272
9417634521
9417642028
9417647948
9417654662
9417660827
9417665954
9417673827
9417681151
9417687987
9417693969
9417699218
9417706542
9417711242
9417719848
9417725707
9417731688
9417738646
9417746642
9417753600
9417761107
9417769591
9417776488
9417782103
9417790892
9417794615
9417804686
9417811949
9417818175
9417825072
9417832152
9417838011
9417842894
9417848265
9417857665
9417862669
9417868407
9417875182
9417882628
9417888609
9417894591
9417900694
9417908812
9417914244
9417919432
9417925230
9417931212
9417938170
9417944640
9417950316
9417955382
9417960203
9417966978
9417974486
9417980589
9417987303
9417993101
9417999205
9418003111
9418013182
9418020506
9418026732
9418033140
9418039061
9418044554
9418049742
9418054686
9418062986
9418068174
9418073301
9418078978
9418084593
9418089964
9418097044
9418101133
9418107786
9418112913
9418117979
9418124632
9418130796
9418140684
9418147703
9418154295
9418159666
9418165769
9418170530
9418177976
9418182981
9418188657
9418195188
9418199583
9418205747
9418212461
9418219297
9418223997
9418230039
9418235837
9418241941
9418249265
9418254880
9418261167
9418267820
9418272642
9418279050
9418286985
9418292112
9418299375
9418306577
9418311765
9418317319
9418323484
9418331174
9418338498
9418345456
9418350522
9418357114
9418364804
9418372861
9418376584
9418385312
9418391721
9418397702
9418404843
9418411008
9418418942
9418425534
9418429074
9418437924
9418444272
9418448972
9418457395
9418465573
9418472714
9418478940
9418485288
9418493466
9418500668
9418507443
9418515256
9418522214
9418528928
9418536862
9418543942
9418549985
9418556821
9418564816
9418570614
9418577878
9418583188
9418590878
9418598752
9418604367
9418610287
9418617489
9418623654
9418629574
9418636227
9418644345
9418650998
9418658200
9418665646
9418672604
9418680172
9418686276
9418692684
9418700680
9418705685
9418713742
9418719723
9418726864
9418733090
9418739681
9418746639
9418753597
9418761166
9418767880
9418774044
9418782467
9418790157
9418796810
9418803524
9418810543
9418816647
9418824459
9418829952
9418837276
9418842770
9418852840
9418858700
9418865230
9418873897
9418881222
9418888424
9418894222
9418900326
9418908504
9418915645
9418919613
9418926937
9418932430
9418940242
9418945552
9418950985
9418957821
9418963070
9418969844
9418976619
9418980831
9418988216
9418993526
9418999141
9419004940
9419011104
9419018062
9419025203
9419030208
9419035884
9419042110
9419049861
9419055171
9419063045
9419070369
9419075496
9419082271
9419086604
9419093074
9419099727
9419105281
9419111995
9419117671
9419122554
9419127986
9419134456
9419140803
9419147945
9419151607
9419158504
9419163142
9419169551
9419177058
9419184871
9419190181
9419197383
9419201655
9419208430
9419215938
9419221370
9419227351
9419231196
9419238520
9419243953
9419249080
9419255610
9419261714
9419266902
9419273127
9419278437
9419283625
9419289668
9419297541
9419302546
9419310237
9419317134
9419323237
9419330561
9419337397
9419343623
9419349116
9419355036
9419361506
9419368342
9419375178
9419382075
9419389216
9419394831
9419400751
9419409907
9419415949
9419424555
9419431025
9419435541
9419443171
9419450617
9419455744
9419464106
9419470209
9419475397
9419483332
9419489008
9419497004
9419503473
9419510798
9419516291
9419523310
9419530390
9419538080
9419545649
9419552240
9419560114
9419565424
9419573908
9419582025
9419588434
9419595026
9419600763
9419607538
9419613520
9419619440
9419627435
9419633173
9419639154
9419646906
9419652033
9419657892
9419665277
9419669977
9419679559
9419685846
9419693597
9419702264
9419709405
9419716730
9419723932
9419730707
9419737787
9419743158
9419751153
9419758966
9419764032
9419772027
9419777826
9419785089
9419790460
9419799432
9419805475
9419811700
9419819207
9419825006
9419832635
9419839288
9419847100
9419853326
9419860833
9419867608
9419874444
9419882745
9419890130
9419896051
9419903009
9419908685
9419916192
9419923638
9419931451
9419938226
9419946160
9419952508
9419958001
9419966302
9419975091
9419982171
9419989068
9419995782
9420000787
9420009881
9420015557
9420022210
9420029168
9420034600
9420039849
9420045769
9420051690
9420058159
9420065179
9420070611
9420076104
9420082573
9420089165
9420094903
9420105034
9420110528
9420117547
9420123467
9420129265
9420134331
9420142205
9420147515
9420154229
9420160088
9420166497
9420172356
9420179253
9420185845
9420191460
9420196282
9420203484
9420208916
9420214470
9420220696
9420227043
9420235344
9420241448
9420246269
9420251763
9420257378
9420264458
9420269829
9420275017
9420281181
9420287163
9420295647
9420301689
9420306999
9420311943
9420319389
9420325615
9420331108
9420336235
9420342461
9420348747
9420354423
9420359794
9420365593
9420374321
9420380119
9420385551
9420391044
9420397758
9420403862
9420409233
9420416923
9420421562
9420428825
9420436638
9420442497
9420448417
9420455864
9420462883
9420467704
9420474296
9420480094
9420486808
9420493583
9420500846
9420506767
9420513847
9420519096
9420524955
9420533134
9420539726
9420545829
9420553031
9420558708
9420564445
9420570853
9420579215
9420586601
9420593436
9420599723
9420606132
9420613273
9420619254
9420626151
9420633109
9420639091
9420645988
9420651603
9420658317
9420666312
9420674430
9420679923
9420687247
9420692252
9420701774
9420708609
9420713797
9420720450
9420728141
9420735709
9420741568
9420751700
9420757193
9420764823
9420772025
9420777335
9420784598
9420790396
9420797537
9420804129
9420810538
9420816336
9420822928
9420828055
9420835135
9420843619
9420849722
9420855826
9420863211
9420869070
9420877127
9420883048
9420889151
9420896658
9420903983
9420909781
9420915457
9420921439
9420929800
9420936453
9420942496
9420950674
9420956106
9420962759
9420968863
9420974112
9420982840
9420990286
9420994131
9421004080
9421012198
9421019278
9421026785
9421033926
9421042044
9421048696
9421056448
9421064321
9421069876
9421078543
9421084951
9421092153
9421099478
9421107778
9421114248
9421120657
9421126577
9421132742
9421139517
9421147695
9421153249
9421160146
9421168691
9421173513
9421179922
9421186514
9421192800
9421200124
9421209585
9421213674
9421221670
9421226552
9421234487
9421243459
9421249196
9421254751
9421259450
9421267385
9421273488
9421278798
9421287160
9421291982
9421301198
9421306264
9421311513
9421317800
9421324697
9421330556
9421337087
9421341420
9421348439
9421354238
9421360585
9421367360
9421372670
9421377431
9421383840
9421388234
9421394521
9421400136
9421407033
9421411733
9421417775
9421422658
9421428761
9421435658
9421442738
9421448720
9421452931
9421458730
9421463185
9421471425
9421476247
9421482472
9421489980
9421495839
9421499989
9421507069
9421514455
9421519582
9421525990
9421531972
9421539113
9421544362
9421551930
9421557912
9421564442
9421571644
9421577076
9421584340
9421590382
9421596364
9421603505
9421608387
9421616078
9421622181
9421629139
9421636525
9421640065
9421651844
9421659291
9421664967
9421674061
9421681385
9421687428
9421694020
9421701283
9421707020
9421713612
9421720936
9421728321
9421735401
9421741932
9421749500
9421756214
9421762623
9421769520
9421776295
9421784657
9421791126
9421796741
9421805225
9421813587
9421819324
9421827015
9421832935
9421838306
9421845630
9421850513
9421859913
9421865833
9421873279
9421880237
9421886707
9421894336
9421902332
9421907032
9421913623
9421918750
9421928638
9421934497
9421941516
9421948169
9421954822
9421962574
9421968616
9421975757
9421984180
9421989246
9421996204
9422002063
9422009632
9422016956
9422022022
9422030200
9422037463
9422043811
9422049426
9422057117
9422063220
9422070178
9422075366
9422083789
9422089526
9422095691
9422101977
9422107959
9422114246
9422121326
9422130298
9422137561
9422144824
9422151050
9422157763
9422165515
9422173388
9422179858
9422187976
9422194018
9422201281
9422207873
9422218493
9422227465
9422234851
9422240100
9422253100
9422261584
9422270129
9422277880
9422284594
9422291186
9422297534
9422302294
9422309985
9422316516
9422322985
9422330431
9422336657
9422343493
9422349352
9422354784
9422361803
9422370470
9422377978
9422384386
9422390734
9422396166
9422402026
9422408739
9422414782
9422421191
9422428698
9422434374
9422440539
9422444994
9422451769
9422457812
9422463488
9422469408
9422475939
9422481249
9422486315
9422491198
9422500231
9422506029
9422509996
9422517443
9422523485
9422529955
9422535753
9422541674
9422548082
9422553759
9422557909
9422564684
9422571764
9422576464
9422583238
9422589586
9422593798
9422600572
9422607652
9422612779
9422619005
9422623949
9422629137
9422635423
9422642198
9422648546
9422654466
9422661852
9422667101
9422674242
9422681566
9422687975
9422693285
9422701646
9422707506
9422712144
9422720567
9422726854
9422733385
9422742296
9422749925
9422756090
9422763231
9422771898
9422780443
9422786119
9422792589
9422798936
9422805284
9422812608
9422818589
9422826951
9422833238
9422840440
9422846055
9422852464
9422859361
9422867173
9422874009
9422880357
9422886949
9422896226
9422903855
9422910020
9422917527
9422923020
9422928513
9422935471
9422941880
9422949387
9422955674
9422961167
9422969102
9422977219
9422982102
9422990403
9422996201
9423001694
9423009141
9423014329
9423022080
9423028672
9423034592
9423042344
9423048264
9423054490
9423061143
9423069504
9423074997
9423081345
9423087693
9423095078
9423100205
9423109482
9423115891
9423123154
9423130844
9423136643
9423144089
9423150315
9423157334
9423163193
9423170761
9423178147
9423184433
9423192246
9423200058
9423204941
9423213120
9423221787
9423228378
9423236618
9423242355
9423250351
9423258041
9423264938
9423269760
9423278244
9423285812
9423294357
9423302475
9423309860
9423315597
9423322067
9423331650
9423340500
9423347030
9423354660
9423361007
9423366806
9423372848
9423378463
9423386337
9423393478
9423399521
9423406723
9423413131
9423417953
9423425888
9423432846
9423441513
9423449447
9423458480
9423465621
9423473007
9423479660
9423486495
9423493331
9423499252
9423507003
9423513168
9423519393
9423527206
9423533675
9423539901
9423545760
9423551986
9423557418
9423564071
9423569320
9423575179
9423581893
9423587081
9423592818
9423598861
9423606979
9423612838
9423617416
9423625716
9423631026
9423636580
9423642867
9423648421
9423653426
9423660384
9423666732
9423673629
9423679549
9423685714
9423691024
9423696273
9423701522
9423709090
9423716109
9423721236
9423728316
9423734542
9423739608
9423745894
9423752486
9423759139
9423764937
9423770796
9423777510
9423785018
9423792708
9423798445
9423804183
9423810408
9423816939
9423823042
9423829207
9423837996
9423845870
9423849959
9423858138
9423863509
9423871443
9423879866
9423884993
9423892317
9423898787
9423904585
9423910567
9423917952
9423924971
9423932478
9423938277
9423945906
9423954085
9423962568
9423968306
9423974898
9423982893
9423987959
9423995955
9424001143
9424010359
9424015974
9424021833
9424029646
9424035994
9424042341
9424050764
9424058088
9424064558
9424070539
9424077314
9424084028
9424089887
9424097212
9424102766
9424111067
9424117841
9424124189
9424130048
9424136274
9424143476
9424149213
9424156355
9424162763
9424171003
9424177656
9424184492
9424190656
9424198225
9424203657
9424210309
9424218183
9424224897
9424230573
9424238202
9424243024
9424250287
9424259199
9424265668
9424273298
9424279462
9424285505
9424293256
9424299543
9424308149
9424314496
9424319135
9424327802
9424334272
9424341901
9424350751
9424357465
9424365460
9424369733
9424380841
9424389630
9424396955
9424404157
9424411908
9424417279
9424425275
9424430463
9424439008
9424447247
9424454388
9424460675
9424465314
9424471356
9424477460
9424486005
9424492779
9424498212
9424507001
9424514386
9424520550
9424527875
9424531354
9424539960
9424545758
9424551678
9424557599
9424562115
9424569378
9424575909
9424582196
9424589215
9424592633
9424600689
9424606183
9424612957
9424620221
9424625653
9424631939
9424638043
9424643109
9424650189
9424657818
9424663067
9424669598
9424674908
9424680279
9424686199
9424692486
9424698651
9424704876
9424709942
9424717083
9424721233
9424729412
9424733929
9424739361
9424746075
9424752117
9424757427
9424762371
9424767559
9424776287
9424781780
9424787395
9424793926
9424798626
9424803692
9424810345
9424817425
9424823589
9424827984
9424834637
9424839641
9424847454
9424852154
9424858135
9424864177
9424872600
9424878643
9424883342
9424891948
9424901226
9424905498
9424913189
9424919109
9424924785
9424930950
9424937603
9424942607
9424949993
9424955120
9424961528
9424969341
9424975627
9424982891
9424988628
9424995952
9425003520
9425009990
9425017925
9425024700
9425032024
9425039531
9425045635
9425052776
9425060954
9425066142
9425073344
9425079326
9425085429
9425091350
9425098491
9425105632
9425111674
9425119609
9425124736
9425132182
9425139689
9425144816
9425152019
9425156352
9425164409
9425171184
9425178691
9425186137
9425192851
9425197062
9425204814
9425211467
9425219279
9425224955
9425229533
9425237712
9425244853
9425251994
9425258219
9425264811
9425270060
9425278361
9425285807
9425291545
9425299662
9425306132
9425314005
9425319438
9425326762
9425332194
9425339457
9425347331
9425353312
9425360209
9425367045
9425372477
9425378641
9425386088
9425394938
9425401591
9425406840
9425415751
9425421061
9425429423
9425434183
9425443278
9425450907
9425457987
9425464518
9425470011
9425478800
9425483988
9425491495
9425496744
9425503519
9425511515
9425518290
9425525003
9425531046
9425539957
9425546610
9425553018
9425557474
9425564554
9425572306
9425578897
9425585245
9425588541
9425596475
9425602152
9425608621
9425616129
9425622537
9425629190
9425634378
9425640482
9425646951
9425654642
9425660074
9425666910
9425672830
9425679300
9425684915
9425691080
9425697610
9425704568
9425709512
9425715555
9425722635
9425728494
9425734659
9425741556
9425746805
9425751077
9425759500
9425764077
9425769327
9425774942
9425781045
9425787515
9425793618
9425798806
9425805215
9425812722
9425820474
9425825357
9425832437
9425838784
9425844155
9425851297
9425858132
9425862832
9425868386
9425873269
9425879617
9425886819
9425892068
9425898538
9425904275
9425912209
9425917947
9425923379
9425930642
9425935586
9425944192
9425951150
9425955300
9425962868
9425971352
9425977334
9425984658
9425991799
9425996255
9426004555
9426011452
9426017739
9426025857
9426031777
9426038064
9426044472
9426051125
9426056496
9426063576
9426071572
9426076821
9426082314
9426088967
9426097695
9426104287
9426110390
9426117165
9426124489
9426128823
9426137123
9426145302
9426150612
9426156166
9426162148
9426169167
9426177468
9426183449
9426191628
9426195900
9426203285
9426208901
9426217568
9426223732
9426230751
9426236794
9426244057
9426250160
9426256508
9426264381
9426271278
9426278786
9426285499
9426293373
9426299415
9426305580
9426313392
9426319496
9426325905
9426333290
9426339271
9426347145
9426353676
9426360267
9426366371
9426373268
9426380409
9426387794
9426395362
9426402992
9426407997
9426416236
9426422401
9426428749
9426438331
9426446022
9426452980
9426459815
9426466712
9426473304
9426479286
9426487403
9426494117
9426500160
9426506996
9426513587
9426519813
9426527137
9426534461
9426539527
9426546180
9426550941
9426557166
9426567542
9426576026
9426583289
9426593970
9426598914
9426605384
9426613563
9426619178
9426625525
9426633216
9426639502
9426646827
9426652076
9426659095
9426664710
9426670691
9426676185
9426681067
9426688330
9426694434
9426700782
9426706763
9426713294
9426718787
9426724463
9426731787
9426740088
9426745337
9426751319
9426757727
9426763098
9426769507
9426776831
9426784461
9426790930
9426796057
9426801672
9426808142
9426816016
9426821570
9426827490
9426833106
9426840064
9426845251
9426850989
9426856360
9426863257
9426869360
9426876257
9426881262
9426889258
9426895239
9426902441
9426908606
9426915076
9426919592
9426927527
9426933874
9426939734
9426945105
9426951452
9426958288
9426965063
9426974463
9426979406
9426986609
9426992529
9426999304
9427004980
9427011328
9427017004
9427024328
9427028906
9427035742
9427042211
9427048315
9427056494
9427061437
9427068151
9427074560
9427080297
9427087560
9427092993
9427101660
9427107275
9427113805
9427122167
9427127782
9427134069
9427140600
9427146947
9427154699
9427161657
9427166357
9427173132
9427181127
9427186803
9427193212
9427199682
9427207128
9427213415
9427221105
9427227575
9427234289
9427241735
9427245580
9427253270
9427260045
9427267980
9427273839
9427280614
9427286840
9427294896
9427300084
9427308019
9427314672
9427320531
9427327855
9427334813
9427340734
9427347142
9427354039
9427360753
9427366002
9427374913
9427381200
9427387059
9427393346
9427399815
9427406407
9427412816
9427419408
9427426671
9427434728
9427441808
9427447667
9427454564
9427461217
9427466527
9427473607
9427480443
9427486790
9427494115
9427501805
9427509495
9427513646
9427522069
9427529881
9427537266
9427544774
9427549595
9427556981
9427564488
9427570775
9427576329
9427584202
9427590245
9427596836
9427603733
9427608982
9427616856
9427623631
9427630345
9427638096
9427645787
9427652745
9427660191
9427665379
9427672093
9427679844
9427688145
9427695225
9427701634
9427708103
9427713474
9427721165
9427729466
9427734531
9427742649
9427747837
9427754917
9427762546
9427768528
9427775547
9427780796
9427787022
9427793186
9427800571
9427807896
9427816013
9427821934
9427828342
9427834629
9427841404
9427844761
9427852268
9427859653
9427865696
9427870945
9427875888
9427884800
9427891636
9427899204
9427905124
9427910373
9427918918
9427925083
9427929294
9427937595
9427945163
9427950962
9427957614
9427963657
9427970004
9427976962
9427982883
9427989841
9427994479
9428002597
9428007419
9428013583
9428018955
9428026279
9428031467
9428036960
9428042697
9428050143
9428056125
9428061923
9428070407
9428078220
9428084933
9428090610
9428097690
9428101962
9428109225
9428115146
9428121737
9428127048
9428132602
9428139132
9428146090
9428151767
9428158236
9428163791
9428169406
9428177096
9428184481
9428191684
9428198092
9428203707
9428209384
9428215609
9428222872
9428229953
9428235995
9428243258
9428248446
9428254977
9428262240
9428268832
9428276034
9428281771
9428287875
9428295748
9428300936
9428309298
9428318331
9428324801
9428332308
9428338656
9428344698
9428350741
9428357149
9428363863
9428370394
9428376925
9428384371
9428389864
9428399081
9428405367
9428412813
9428418246
9428424898
9428432711
9428439852
9428446627
9428454073
9428459627
9428469210
9428472994
9428480745
9428487764
9428494112
9428501253
9428507296
9428513460
9428521334
9428526888
9428534822
9428541841
9428547762
9428554354
9428559542
9428568697
9428574495
9428581087
9428593111
9428600801
9428604463
9428612947
9428620821
9428628755
9428635713
9428642244
9428649995
9428656709
9428662813
9428669221
9428676973
9428683382
9428690645
9428696870
9428704378
9428709443
9428717073
9428726533
9428732515
9428741060
9428747835
9428757051
9428764070
9428769380
9428776704
9428782197
9428789705
9428795076
9428802522
9428810334
9428817231
9428825227
9428829072
9428837190
9428843232
9428848969
9428857698
9428865388
9428874238
9428880464
9428887483
9428893891
9428902131
9428908234
9428915009
9428920197
9428927216
9428932954
9428939973
9428945649
9428952973
9428959931
9428966035
9428971955
9428979706
9428984467
9428992036
9428998200
9429004792
9429010224
9429016083
9429023774
9429029511
9429036164
9429042634
9429048676
9429054413
9429060395
9429067292
9429074738
9429081879
9429087494
9429094147
9429100983
9429106232
9429112885
9429119232
9429127411
9429133698
9429139313
9429144440
9429150238
9429156098
9429162628
9429170197
9429176544
9429181793
9429187348
9429195282
9429200775
9429208222
9429215057
9429220917
9429226532
9429232208
9429238739
9429243072
9429250458
9429254852
9429261078
9429267792
9429273590
9429278290
9429286590
9429292511
9429298309
9429304840
9429311127
9429320038
9429324615
9429332672
9429338714
9429344757
9429348114
9429357818
9429363678
9429369720
9429376434
9429380951
9429388580
9429393035
9429400543
9429405548
9429412200
9429419586
9429425811
9429432098
9429438384
9429445281
9429451995
9429458831
9429465850
9429472564
9429477508
9429484405
9429491363
9429497222
9429504607
9429510650
9429517669
9429524383
9429529815
9429536529
9429541961
9429550811
9429557403
9429563872
9429569732
9429575896
9429582610
9429589568
9429596587
9429602935
9429610686
9429614593
9429622649
9429629302
9429635467
9429642608
9429647612
9429655486
9429662200
9429668792
9429674163
9429681975
9429685576
9429694609
9429701995
9429708281
9429713164
9429719390
9429727446
9429732512
9429740080
9429747222
9429754241
9429761870
9429768218
9429774565
9429781462
9429787749
9429795500
9429803984
9429808867
9429815947
9429822966
9429829497
9429836638
9429842314
9429849333
9429856596
9429862150
9429869597
9429874968
9429881804
9429887175
9429894804
9429901823
9429906706
9429912138
9429921660
9429928618
9429935270
9429942473
9429949553
9429955839
9429962431
9429969023
9429975615
9429981047
9429989164
9429994535
9430001310
9430009062
9430013884
9430020903
9430027372
9430033598
9430040068
9430046354
9430052946
9430061308
9430067228
9430074003
9430082182
9430088468
9430096403
9430103300
9430109220
9430116178
9430123563
9430129057
9430134367
9430142545
9430147733
9430154935
9430159391
9430167203
9430172819
9430180509
9430187345
9430193693
9430197416
9430207548
9430213834
9430220487
9430226285
9430233060
9430239286
9430245511
9430252408
9430257169
9430265592
9430270292
9430277921
9430282499
9430289640
9430296353
9430302091
9430308805
9430314115
9430320767
9430326810
9430332059
9430339383
9430344571
9430351346
9430356473
9430363065
9430367825
9430375211
9430378629
9430387723
9430393582
9430401334
9430407071
9430413785
9430420194
9430425565
9430433804
9430437283
9430445340
9430451565
9430457303
9430463650
9430469388
9430475979
9430480435
9430487271
9430493619
9430498685
9430505520
9430511258
9430516141
9430523160
9430528531
9430536160
9430543728
9430550015
9430557034
9430563137
9430568875
9430574734
9430580227
9430588833
9430594387
9430601651
9430607632
9430611111
9430618801
9430624783
9430630825
9430637234
9430643215
9430649746
9430655728
9430661648
9430667629
9430674404
9430681362
9430687344
9430692288
9430700161
9430705654
9430713223
9430720181
9430727016
9430730984
9430739834
9430743679
9430752224
9430758388
9430764797
9430771633
9430778347
9430782192
9430791408
9430798000
9430804470
9430810695
9430818447
9430824733
9430832607
9430838894
9430845974
9430852199
9430859218
9430864711
9430871669
9430879665
9430886989
9430893398
9430897243
9430905727
9430909450
9430917934
9430924831
9430931423
9430938198
9430944667
9430951015
9430958095
9430963771
9430970851
9430978114
9430983547
9430990810
9430997157
9431006068
9431011684
9431017909
9431023830
9431033656
9431037807
9431046840
9431053004
9431059535
9431065761
9431072230
9431079677
9431086635
9431092860
9431099391
9431105006
9431111659
9431118434
9431125026
9431128871
9431138453
9431145289
9431151637
9431157863
9431166285
9431173304
9431181361
9431187892
9431194178
9431201564
9431206996
9431213038
9431219996
9431226344
9431231715
9431241419
9431245326
9431253443
9431260584
9431266993
9431274012
9431280482
9431285975
9431293177
9431300440
9431304957
9431313013
9431320216
9431325770
9431333582
9431339381
9431347254
9431354761
9431360255
9431369715
9431374293
9431383997
9431391260
9431397303
9431403101
9431409449
9431416895
9431423182
9431430323
9431435083
9431443140
9431449060
9431455164
9431461817
9431468103
9431473413
9431480310
9431486292
9431492884
9431499231
9431504724
9431511377
9431515406
9431522486
9431527735
9431535852
9431541345
9431546594
9431553247
9431557520
9431566431
9431571375
9431578333
9431584070
9431591089
9431597131
9431604028
9431611047
9431620142
9431625696
9431631921
9431638574
9431642541
9431649683
9431656396
9431660974
9431668420
9431674158
9431679407
9431685144
9431692895
9431697900
9431703576
9431711023
9431716394
9431723535
9431728845
9431737146
9431744104
9431751245
9431756006
9431761987
9431767541
9431775598
9431780969
9431786218
9431792260
9431799646
9431805261
9431812219
9431817773
9431824731
9431830102
9431835351
9431840966
9431847253
9431855981
9431860864
9431866479
9431871728
9431879723
9431886437
9431892053
9431898278
9431904870
9431911462
9431918664
9431926232
9431934228
9431939782
9431944115
9431952416
9431957787
9431965417
9431975365
9431980309
9431986168
9431993004
9431997460
9432005333
9432012291
9432018578
9432025536
9432030236
9432037560
9432042870
9432050438
9432058007
9432064721
9432070763
9432077965
9432084069
9432090172
9432099388
9432106346
9432113732
9432119103
9432125756
9432133995
9432139366
9432150536
9432158104
9432164269
9432169701
9432177391
9432182762
9432191490
9432197411
9432203697
9432211205
9432217064
9432223656
9432230736
9432240562
9432248131
9432255394
9432264000
9432270775
9432278709
9432286583
9432291893
9432297874
9432304161
9432310875
9432318748
9432326072
9432332176
9432339012
9432345970
9432351707
9432359398
9432367332
9432373069
9432378685
9432385582
9432392845
9432399009
9432405052
9432412071
9432418479
9432423362
9432431846
9432439781
9432445762
9432455039
9432461265
9432467063
9432474326
9432481406
9432488242
9432495261
9432503989
9432510337
9432515342
9432521018
9432528526
9432534629
9432541160
9432547263
9432553062
9432558250
9432563865
9432569907
9432578086
9432584495
9432591025
9432595847
9432603599
9432609092
9432614707
9432621970
9432627585
9432634421
9432640586
9432645896
9432653037
9432660727
9432667380
9432672995
9432681845
9432687339
9432693198
9432698996
9432705832
9432712851
9432717307
9432722861
9432728537
9432734885
9432740805
9432747092
9432753928
9432759177
9432765036
9432770163
9432776999
9432783469
9432789389
9432795309
9432800559
9432807028
9432814352
9432819357
9432825583
9432830588
9432837912
9432842795
9432847433
9432854697
9432859946
9432866965
9432872824
9432879477
9432884115
9432890402
9432896261
9432903036
9432912192
9432916769
9432927267
9432933249
9432941855
9432949118
9432955099
9432961996
9432966940
9432973227
9432977987
9432985983
9432992514
9432997274
