9034452091
9034457401
9034462589
9034467777
9034473636
9034479252
9034484073
9034489566
9034495914
9034501590
9034505924
9034512394
9034518131
9034523380
9034528080
9034534793
9034542118
9034549259
9034554874
9034562076
9034567996
9034573306
9034578128
9034584110
9034588870
9034595340
9034602237
9034607547
9034614261
9034620181
9034627200
9034631534
9034639468
9034646793
9034653812
9034660892
9034664371
9034673038
9034682254
9034687808
9034695987
9034702396
9034708621
9034715823
9034721927
9034727298
9034735721
9034742373
9034747012
9034755191
9034759952
9034768496
9034774356
9034783267
9034788455
9034796145
9034802554
9034809756
9034813418
9034821292
9034827639
9034835757
9034842288
9034848696
9034855899
9034860659
9034868777
9034874026
9034882327
9034888064
9034895693
9034902407
9034909182
9034913271
9034922244
9034927859
9034939028
9034945803
9034952639
9034958681
9034965456
9034972720
9034979494
9034986513
9034993532
9035002077
9035007387
9035014467
9035021975
9035028322
9035036745
9035044497
9035051027
9035059755
9035063723
9035072023
9035077578
9035086000
9035091677
9035102358
9035109560
9035114748
9035125673
9035132143
9035142153
9035151247
9035159242
9035169802
9035176698
9035186586
9035194338
9035201906
9035208559
9035215578
9035223940
9035232301
9035238649
9035244875
9035254457
9035262209
9035270265
9035278688
9035284486
9035293947
9035299745
9035309267
9035315553
9035325014
9035332887
9035338624
9035346437
9035353761
9035360963
9035369325
9035378358
9035384217
9035392579
9035398561
9035407411
9035411622
9035421510
9035430482
9035439088
9035447023
9035454835
9035461854
9035470460
9035476869
9035487733
9035494752
9035502076
9035510255
9035515992
9035524537
9035528382
9035538941
9035547364
9035553712
9035562379
9035571534
9035579041
9035586549
9035592042
9035601685
9035609070
9035614197
9035623170
9035629639
9035638733
9035647522
9035654786
9035660828
9035669373
9035676697
9035680664
9035690613
9035698914
9035706726
9035714539
9035718689
9035729126
9035737000
9035745484
9035753845
9035760376
9035767884
9035774536
9035784119
9035797302
9035807800
9035818665
9035828735
9035836304
9035845581
9035854858
9035861633
9035870972
9035878052
9035885620
9035893371
9035903259
9035911194
9035918335
9035927368
9035935058
9035941894
9035950866
9035957336
9035966736
9035974426
9035981445
9035987671
9035995239
9036003845
9036011352
9036019470
9036026123
9036031494
9036039733
9036046874
9036055053
9036063842
9036070800
9036078369
9036086852
9036095397
9036104369
9036111999
9036119994
9036125671
9036134094
9036142211
9036150390
9036156860
9036166320
9036174377
9036181274
9036188293
9036195983
9036203185
9036209106
9036219787
9036228087
9036235106
9036242309
9036249694
9036257262
9036263060
9036273681
9036281920
9036289244
9036295836
9036307494
9036314147
9036322081
9036331969
9036338378
9036346556
9036354125
9036362242
9036370238
9036382140
9036389525
9036396910
9036405577
9036411681
9036422362
9036429930
9036438719
9036446532
9036454527
9036462462
9036471068
9036479307
9036488035
9036495848
9036504454
9036516783
9036524779
9036532347
9036539732
9036547545
9036554442
9036562376
9036569578
9036576780
9036585569
9036593870
9036601561
9036609007
9036616331
9036623594
9036631651
9036637937
9036645872
9036652220
9036659849
9036668028
9036675718
9036682188
9036690977
9036697324
9036705747
9036711912
9036721800
9036729490
9036736936
9036744749
9036752073
9036759519
9036766538
9036776731
9036781980
9036788450
9036792722
9036802610
9036807615
9036813657
9036821775
9036827207
9036833799
9036839841
9036845334
9036852781
9036857236
9036865903
9036871763
9036877866
9036885190
9036891599
9036899106
9036905759
9036912290
9036921018
9036927793
9036935178
9036942868
9036951291
9036957700
9036966306
9036973508
9036979245
9036986569
9036992734
9037000302
9037007260
9037014157
9037022641
9037026913
9037035764
9037041074
9037051022
9037059994
9037064877
9037074094
9037080685
9037087582
9037096676
9037103512
9037111996
9037122799
9037129330
9037137997
9037143979
9037152035
9037166012
9037174435
9037179867
9037189022
9037194699
9037203915
9037211605
9037217221
9037224362
9037231137
9037237606
9037244381
9037251888
9037258236
9037265255
9037273190
9037278988
9037287899
9037294979
9037302975
9037310360
9037316952
9037323177
9037330380
9037338009
9037346920
9037354000
9037361324
9037369442
9037375729
9037382320
9037392452
9037400204
9037408748
9037415096
9037423397
9037429683
9037436397
9037442928
9037453548
9037459530
9037466732
9037474422
9037482051
9037488155
9037497005
9037504940
9037512935
9037520626
9037527950
9037533260
9037541805
9037546260
9037554866
9037563289
9037569332
9037574214
9037579524
9037586665
9037593257
9037598445
9037605342
9037609798
9037617000
9037622981
9037628597
9037636165
9037640620
9037648250
9037653621
9037659175
9037666011
9037672053
9037681087
9037687495
9037694758
9037702266
9037708308
9037717402
9037727961
9037733821
9037740291
9037746699
9037751704
9037757380
9037763057
9037769648
9037775203
9037780696
9037786860
9037790583
9037798335
9037803767
9037809565
9037816035
9037822749
9037826533
9037834773
9037841181
9037846186
9037852168
9037856745
9037861811
9037868830
9037874629
9037879695
9037886591
9037893427
9037898859
9037904902
9037911738
9037917048
9037922663
9037929194
9037934260
9037938593
9037946833
9037953852
9037959956
9037965082
9037970820
9037977595
9037985224
9037991328
9037997065
9038004572
9038010309
9038015375
9038022761
9038028925
9038034601
9038040461
9038047663
9038053278
9038059992
9038065851
9038074030
9038079096
9038084345
9038091913
9038096491
9038104914
9038110163
9038117609
9038124445
9038130792
9038137079
9038144525
9038150995
9038156854
9038162714
9038168634
9038175653
9038179071
9038189447
9038196710
9038202875
9038211237
9038216119
9038224969
9038228876
9038237604
9038245111
9038251520
9038257501
9038263666
9038271173
9038276666
9038282770
9038291742
9038297174
9038302545
9038308526
9038314264
9038322442
9038328973
9038334894
9038341974
9038348687
9038354425
9038361566
9038366510
9038375909
9038381707
9038386041
9038394097
9038397393
9038406366
9038413995
9038420159
9038426934
9038432794
9038438958
9038446527
9038455743
9038461968
9038470147
9038476251
9038481378
9038490899
9038498711
9038504510
9038511285
9038518487
9038523553
9038529839
9038535699
9038544183
9038550347
9038556512
9038563775
9038568597
9038578423
9038585503
9038591485
9038598870
9038606011
9038612237
9038619134
9038624199
9038633538
9038638787
9038645257
9038655144
9038659050
9038668999
9038675652
9038681328
9038686211
9038692742
9038698296
9038705254
9038710991
9038719414
9038724419
9038730583
9038737969
9038745476
9038754936
9038760491
9038768425
9038774895
9038782524
9038787956
9038794731
9038800652
9038805473
9038813225
9038820549
9038827751
9038833427
9038839958
9038847526
9038852776
9038859795
9038866569
9038871818
9038878776
9038885124
9038890861
9038897514
9038903068
9038909477
9038915458
9038921379
9038926445
9038931938
9038938163
9038944023
9038949150
9038955192
9038961357
9038967826
9038973137
9038978202
9038984855
9038989555
9038995658
9039000968
9039007865
9039013237
9039017875
9039025016
9039031791
9039037406
9039042777
9039049552
9039054679
9039060295
9039067130
9039075858
9039080680
9039086601
9039093986
9039099662
9039105277
9039112846
9039118644
9039124137
9039131034
9039135734
9039143851
9039150504
9039156852
9039163810
9039168632
9039175529
9039182181
9039188285
9039196097
9039201468
9039209403
9039215507
9039221488
9039227652
9039234488
9039244864
9039251334
9039258536
9039265982
9039272818
9039278189
9039286917
9039295218
9039301261
9039307975
9039312430
9039321097
9039328238
9039334708
9039341788
9039348807
9039354178
9039360709
9039366263
9039373221
9039380301
9039386038
9039393851
9039400015
9039405997
9039413199
9039416739
9039424979
9039431143
9039436819
9039444083
9039449820
9039455740
9039464651
9039469046
9039476309
9039482962
9039488516
9039496206
9039503897
9039510306
9039516470
9039521048
9039529287
9039536490
9039542166
9039549307
9039554861
9039560659
9039568594
9039574881
9039580008
9039587088
9039591909
9039600576
9039607962
9039612295
9039620779
9039628347
9039634573
9039640981
9039647451
9039654531
9039661672
9039667776
9039676199
9039681020
9039688955
9039694326
9039700857
9039709524
9039715505
9039724783
9039731618
9039738332
9039747427
9039752859
9039760732
9039767385
9039772207
9039778982
9039786489
9039794057
9039799489
9039808950
9039817922
9039821035
9039830739
9039837514
9039843251
9039849843
9039854055
9039862722
9039867971
9039872670
9039879079
9039883290
9039890187
9039897084
9039901967
9039909597
9039914907
9039921315
9039927907
9039933156
9039939809
9039944997
9039951528
9039956166
9039960561
9039968251
9039975026
9039979054
9039986012
9039991994
9039997243
9040004079
9040009999
9040015187
9040021046
9040027211
9040031850
9040039113
9040044118
9040051320
9040056813
9040063039
9040068715
9040072377
9040081776
9040088856
9040093251
9040099660
9040105946
9040111867
9040118214
9040123646
9040129872
9040135853
9040141835
9040147206
9040153248
9040160023
9040166249
9040172596
9040177845
9040183033
9040189381
9040196095
9040202442
9040207142
9040212513
9040218495
9040225331
9040230885
9040238453
9040245594
9040251087
9040257557
9040263661
9040272389
9040284229
9040290577
9040297779
9040303455
9040310658
9040317982
9040326527
9040332569
9040340198
9040346058
9040351185
9040356678
9040366382
9040374012
9040379444
9040386646
9040392383
9040398182
9040404163
9040411365
9040416797
9040425220
9040430713
9040437671
9040443958
9040450428
9040457508
9040464038
9040470081
9040477405
9040481678
9040489795
9040497608
9040503406
9040509998
9040516590
9040521839
9040528736
9040534717
9040543018
9040548877
9040556629
9040563587
9040570728
9040576709
9040584827
9040591296
9040598621
9040605334
9040610400
9040619678
9040626453
9040631152
9040638354
9040644031
9040649280
9040657886
9040665149
9040670947
9040678088
9040683826
9040690173
9040694995
9040702441
9040710559
9040717212
9040722766
9040731738
9040735888
9040744738
9040750354
9040757983
9040764697
9040770800
9040778735
9040784350
9040793994
9040800769
9040808520
9040816027
9040822314
9040831347
9040835436
9040845019
9040851061
9040860888
9040866931
9040873461
9040877734
9040885973
9040891467
9040896899
9040904589
9040909655
9040916308
9040922778
9040928149
9040934252
9040940783
9040946337
9040953661
9040957567
9040966601
9040973009
9040978930
9040984057
9040990832
9040996081
9040999804
9041007067
9041015551
9041019701
9041026781
9041032335
9041037218
9041043993
9041050158
9041057055
9041061815
9041066637
9041072985
9041078478
9041083544
9041091051
9041095995
9041101000
9041106737
9041111803
9041119066
9041124681
9041129564
9041136156
9041141283
9041146715
9041153734
9041158922
9041166368
9041172167
9041177599
9041183092
9041187242
9041196092
9041202013
9041207384
9041214220
9041219530
9041224962
9041231493
9041236986
9041243394
9041249864
9041256090
9041260728
9041268541
9041274034
9041281236
9041287279
9041294542
9041299974
9041309190
9041318467
9041323167
9041330552
9041338792
9041345445
9041352342
9041359483
9041366868
9041373094
9041378770
9041386033
9041393663
9041399888
9041407090
9041411546
9041420091
9041426133
9041432847
9041439500
9041446031
9041451890
9041458360
9041462693
9041471299
9041476426
9041483323
9041491380
9041499192
9041507249
9041513474
9041518601
9041528794
9041536423
9041541245
9041549363
9041556199
9041561936
9041569016
9041575486
9041580735
9041587693
9041594285
9041600998
9041607773
9041613999
9041621567
9041627610
9041633713
9041640793
9041647507
9041652695
9041660324
9041665451
9041673691
9041680283
9041686142
9041693589
9041700669
9041706589
9041712448
9041719162
9041726425
9041732651
9041738144
9041746445
9041751694
9041759323
9041765244
9041769943
9041777756
9041784836
9041789841
9041796860
9041801559
9041811081
9041817490
9041824753
9041833298
9041840073
9041849045
9041858993
9041863266
9041872421
9041881943
9041890610
9041898361
9041903488
9041912338
9041918503
9041925888
9041932113
9041938705
9041944870
9041951889
9041957382
9041963485
9041969894
9041975448
9041982223
9041986373
9041993026
9041996200
9042005538
9042012252
9042017074
9042023849
9042030136
9042035262
9042042953
9042047408
9042054366
9042061446
9042067916
9042075057
9042081466
9042087386
9042095138
9042099349
9042105758
9042111678
9042117355
9042124313
9042130416
9042138473
9042143172
9042147872
9042153731
9042158736
9042165999
9042170699
9042177169
9042183394
9042188155
9042193587
9042200850
9042206222
9042213729
9042218245
9042223006
9042228621
9042233687
9042240096
9042246260
9042251876
9042257430
9042262618
9042267684
9042274276
9042283492
9042289962
9042294783
9042300948
9042306136
9042313155
9042318892
9042324813
9042329390
9042337996
9042344100
9042350386
9042355818
9042363142
9042368941
9042377120
9042382491
9042389265
9042395796
9042401839
9042412642
9042418867
9042425886
9042430952
9042438765
9042444502
9042449629
9042456953
9042463850
9042468489
9042476118
9042481306
9042488142
9042493269
9042501021
9042507979
9042514692
9042521406
9042528120
9042534163
9042541853
9042547102
9042554792
9042558454
9042566877
9042573957
9042580488
9042586714
9042591902
9042599287
9042605635
9042611738
9042619612
9042624739
9042633405
9042640669
9042646528
9042653364
9042659162
9042666181
9042672407
9042679731
9042686872
9042693830
9042700300
9042704389
9042713361
9042720136
9042726728
9042731977
9042736982
9042744245
9042751386
9042758344
9042765607
9042770734
9042777997
9042785261
9042791730
9042798261
9042803449
9042811628
9042817609
9042823652
9042830976
9042837384
9042844953
9042850690
9042856794
9042864179
9042869245
9042876447
9042885053
9042891339
9042898480
9042904889
9042913312
9042919721
9042928327
9042936566
9042942975
9042950238
9042957807
9042965131
9042972150
9042979291
9042986310
9042991132
9042999188
9043003949
9043011884
9043016583
9043023175
9043030072
9043036053
9043042950
9043048932
9043055890
9043062420
9043067670
9043073956
9043080731
9043087262
9043092450
9043100201
9043106244
9043112469
9043118756
9043123333
9043128521
9043136334
9043142620
9043148846
9043152508
9043160565
9043167523
9043172222
9043177288
9043184674
9043190533
9043196697
9043202984
9043208782
9043215313
9043221234
9043227642
9043233746
9043238690
9043245281
9043251873
9043259625
9043265484
9043270855
9043277691
9043284771
9043290630
9043296917
9043302471
9043308392
9043314068
9043319622
9043325420
9043331829
9043337383
9043342022
9043351909
9043356914
9043363018
9043368511
9043373028
9043380352
9043385662
9043392864
9043397381
9043403362
9043411785
9043416118
9043423259
9043428264
9043434734
9043439312
9043446270
9043451763
9043457744
9043463237
9043468975
9043475627
9043481182
9043486736
9043492717
9043498149
9043504070
9043511211
9043516399
9043525005
9043531780
9043538616
9043544536
9043552348
9043558940
9043565349
9043570842
9043576518
9043582439
9043589702
9043593486
9043601360
9043604839
9043611369
9043615886
9043623515
9043629069
9043634746
9043641643
9043648234
9043653056
9043659099
9043665568
9043672099
9043678630
9043683818
9043690959
9043696513
9043704631
9043711528
9043717875
9043725627
9043732463
9043738078
9043744487
9043750773
9043757853
9043763713
9043767253
9043776103
9043783061
9043789469
9043795085
9043801737
9043808940
9043813578
9043821513
9043828471
9043833720
9043840128
9043845316
9043851725
9043857462
9043863749
9043871012
9043874796
9043882304
9043887919
9043893778
9043898661
9043904887
9043909708
9043918314
9043924540
9043930582
9043936686
9043942606
9043948954
9043954813
9043960489
9043968424
9043974161
9043980143
9043986185
9043990763
9043998270
9044002787
9044011759
9044016581
9044024576
9044030375
9044036661
9044042093
9044049295
9044054728
9044063333
9044069498
9044075785
9044083048
9044088297
9044097025
9044103739
9044111307
9044115946
9044127298
9044135599
9044141580
9044149454
9044158975
9044165140
9044172159
9044178812
9044184427
9044190225
9044198099
9044205728
9044212503
9044219339
9044225809
9044232522
9044237344
9044244607
9044251382
9044258951
9044263711
9044271585
9044278726
9044283670
9044290628
9044297708
9044304605
9044311746
9044317727
9044324258
9044330056
9044336526
9044343972
9044349588
9044355264
9044361612
9044368264
9044375283
9044383523
9044388406
9044394876
9044401406
9044408181
9044413308
9044419290
9044426553
9044434670
9044438821
9044446572
9044451150
9044458596
9044462014
9044471658
9044479104
9044483743
9044489785
9044494302
9044501138
9044506448
9044512368
9044518899
9044522500
9044529824
9044534951
9044540139
9044546853
9044552407
9044558449
9044562600
9044569375
9044573098
9044581399
9044588112
9044594399
9044599953
9044606789
9044611733
9044619362
9044625039
9044630898
9044638588
9044645424
9044651223
9044659829
9044666115
9044672280
9044680031
9044686501
9044694008
9044697609
9044706764
9044712197
9044717751
9044726113
9044731972
9044737221
9044743813
9044749977
9044759438
9044764992
9044770485
9044778725
9044784828
9044791237
9044798256
9044804420
9044811562
9044818092
9044823646
9044831581
9044839455
9044844581
9044852882
9044858803
9044864906
9044873146
9044878090
9044885902
9044893593
9044898536
9044905677
9044910682
9044919410
9044925270
9044932655
9044940406
9044947670
9044952064
9044958961
9044965248
9044973976
9044978248
9044986854
9044994605
9045002601
9045009681
9045017127
9045024513
9045030250
9045035255
9045044532
9045049354
9045058082
9045065223
9045069251
9045078956
9045084144
9045090308
9045097633
9045103065
9045111915
9045118568
9045124915
9045132911
9045137977
9045145728
9045152564
9045159217
9045165626
9045173499
9045179236
9045186561
9045192481
9045199988
9045205115
9045213294
9045220313
9045227210
9045235144
9045241065
9045248572
9045255347
9045261634
9045267432
9045276099
9045281714
9045288062
9045293433
9045301489
9045307654
9045314368
9045320593
9045327002
9045333594
9045338355
9045346411
9045353064
9045356787
9045365027
9045368872
9045377051
9045382422
9045390356
9045397070
9045403479
9045410193
9045415442
9045422095
9045429663
9045436865
9045442908
9045449072
9045455237
9045461279
9045467566
9045474280
9045480444
9045486975
9045491980
9045498327
9045506262
9045512304
9045518530
9045524145
9045530737
9045538061
9045543127
9045549658
9045555761
9045562475
9045567053
9045574377
9045578955
9045586462
9045591223
9045599645
9045606359
9045611975
9045618627
9045624609
9045629614
9045636755
9045641760
9045648718
9045653845
9045661169
9045666357
9045672887
9045678075
9045685766
9045689062
9045698766
9045704626
9045710180
9045714941
9045720556
9045726415
9045731542
9045737707
9045743017
9045749181
9045754857
9045760473
9045764745
9045771581
9045776708
9045783971
9045788854
9045795018
9045802099
9045808995
9045814183
9045821508
9045829137
9045835302
9045841710
9045848790
9045853429
9045860204
9045863500
9045871312
9045878209
9045882421
9045888707
9045895299
9045901769
9045906896
9045915502
9045921727
9045927464
9045933324
9045939610
9045946202
9045952428
9045959935
9045963841
9045971593
9045977879
9045982457
9045990269
9045997411
9046004307
9046011449
9046018162
9046023350
9046029149
9046037816
9046043980
9046051243
9046057713
9046064000
9046070714
9046077183
9046083653
9046091465
9046095006
9046102452
9046110447
9046115330
9046122593
9046128392
9046137669
9046143528
9046150608
9046158238
9046164219
9046170384
9046178013
9046185459
9046191685
9046197239
9046203343
9046210423
9046215000
9046223240
9046228428
9046235447
9046242954
9046247593
9046254673
9046260960
9046267979
9046274937
9046280735
9046287083
9046293613
9046300144
9046306492
9046312656
9046319675
9046327427
9046333408
9046339634
9046347019
9046354526
9046360203
9046369663
9046376499
9046382724
9046389560
9046395054
9046404148
9046409153
9046416355
9046421726
9046429782
9046435520
9046443027
9046449314
9046455783
9046461887
9046468967
9046476596
9046483005
9046489475
9046496128
9046502963
9046510105
9046516757
9046522617
9046528354
9046534274
9046541782
9046547031
9046555576
9046562167
9046568820
9046576694
9046584262
9046591891
9046599887
9046607333
9046614841
9046621310
9046627109
9046633212
9046640780
9046646823
9046652804
9046659762
9046664889
9046672152
9046678805
9046685153
9046692599
9046698275
9046704379
9046710360
9046716525
9046723178
9046727816
9046734835
9046741366
9046747653
9046753756
9046759371
9046766879
9046772982
9046779330
9046786410
9046791842
9046797640
9046805575
9046811617
9046818270
9046825472
9046831027
9046836092
9046842196
9046849825
9046854525
9046859896
9046866976
9046871310
9046878756
9046884188
9046890475
9046897860
9046903963
9046910738
9046917269
9046924898
9046931063
9046937960
9046945345
9046950960
9046956881
9046963228
9046968050
9046975130
9046981051
9046986605
9046992647
9046998262
9047003267
9047009005
9047015413
9047021029
9047027925
9047032625
9047038668
9047044954
9047050936
9047055880
9047063387
9047068514
9047076326
9047079988
9047087251
9047093477
9047099336
9047105196
9047112703
9047117586
9047123445
9047130159
9047134554
9047142305
9047146883
9047154634
9047159639
9047166597
9047172090
9047180208
9047185701
9047192964
9047198579
9047207002
9047214021
9047220186
9047224946
9047231416
9047239351
9047243867
9047252839
9047258272
9047265169
9047270418
9047279268
9047285249
9047291475
9047298127
9047305146
9047310945
9047316499
9047324800
9047330598
9047338716
9047345430
9047351716
9047358003
9047363984
9047369905
9047376557
9047381745
9047387971
9047396333
9047400361
9047407807
9047412934
9047420747
9047424409
9047434235
9047437959
9047448457
9047454377
9047460114
9047465913
9047471955
9047477814
9047486298
9047493623
9047499360
9047507233
9047518647
9047524689
9047533051
9047539033
9047547455
9047553742
9047559968
9047567170
9047572419
9047580475
9047586213
9047593659
9047599335
9047606354
9047610077
9047618134
9047625153
9047631623
9047638581
9047643341
9047649872
9047656159
9047662689
9047669647
9047676239
9047682099
9047691498
9047696076
9047703766
9047710907
9047717377
9047724945
9047728485
9047738739
9047745270
9047750702
9047759918
9047766327
9047771759
9047780304
9047786468
9047796234
9047802765
9047808929
9047815460
9047820709
9047828766
9047834320
9047842804
9047849151
9047854767
9047860626
9047864776
9047872955
9047879303
9047884857
9047889679
9047895965
9047900604
9047907623
9047912323
9047920318
9047926056
9047931732
9047937408
9047943023
9047946319
9047953521
9047959930
9047966400
9047972564
9047978057
9047984161
9047989898
9047994354
9048000091
9048007293
9048015106
9048019683
9048025787
9048031219
9048037322
9048042754
9048047088
9048054717
9048060455
9048065032
9048069915
9048078887
9048084747
9048091338
9048099822
9048108733
9048113311
9048122039
9048127898
9048133636
9048140227
9048146697
9048152434
9048157927
9048163787
9048169829
9048175383
9048183257
9048188018
9048194182
9048200591
9048204985
9048212066
9048218169
9048224089
9048230803
9048236113
9048242095
9048247771
9048254241
9048261199
9048268035
9048273894
9048279265
9048286345
9048291655
9048298430
9048304900
9048311064
9048316680
9048322234
9048327971
9048334319
9048342436
9048347990
9048353728
9048361418
9048366545
9048374052
9048380949
9048387419
9048394804
9048400236
9048406889
9048412810
9048418852
9048426115
9048432707
9048438688
9048445341
9048451262
9048456938
9048464262
9048471708
9048475248
9048482573
9048490263
9048496489
9048503874
9048510221
9048516630
9048522123
9048528471
9048535063
9048541716
9048547819
9048555632
9048561186
9048568327
9048574980
9048581205
9048588285
9048593900
9048602934
9048609648
9048616117
9048625028
9048632414
9048639188
9048644682
9048652921
9048659635
9048666959
9048672819
9048680021
9048686796
9048693143
9048698331
9048704313
9048712064
9048715665
9048724393
9048730985
9048737577
9048744169
9048750944
9048757596
9048764554
9048769010
9048777494
9048781888
9048791715
9048798612
9048804166
9048811368
9048817533
9048823880
9048830289
9048836820
9048843595
9048849027
9048856473
9048863065
9048870511
9048879727
9048888211
9048893521
9048902493
9048908231
9048916715
9048923367
9048931729
9048938809
9048945462
9048951260
9048958035
9048965359
9048971280
9048979153
9048983243
9048991543
9048996731
9049002408
9049009915
9049015591
9049022915
9049028653
9049034695
9049041592
9049048367
9049053006
9049058133
9049066983
9049073147
9049079373
9049085476
9049092129
9049097561
9049104214
9049112515
9049118252
9049124539
9049130398
9049135769
9049140957
9049148953
9049152676
9049161343
9049165188
9049173916
9049181790
9049187039
9049193447
9049199124
9049207424
9049216457
9049222134
9049228848
9049235134
9049240505
9049246670
9049252773
9049257168
9049264614
9049270229
9049275967
9049282558
9049288174
9049295132
9049299465
9049305752
9049311916
9049317776
9049322597
9049328701
9049336025
9049341335
9049347561
9049353115
9049358791
9049363064
9049370144
9049374416
9049381740
9049388088
9049394558
9049399746
9049407009
9049410488
9049418117
9049422084
9049434597
9049441677
9049446926
9049453151
9049458766
9049463649
9049471523
9049476772
9049484157
9049489345
9049495571
9049500881
9049505763
9049514919
9049521388
9049527492
9049533962
9049539943
9049546718
9049551479
9049558498
9049565272
9049571803
9049576991
9049584560
9049590602
9049596767
9049603969
9049610316
9049618129
9049623195
9049629054
9049635646
9049641627
9049647120
9049656337
9049661525
9049667689
9049674281
9049681056
9049686000
9049692958
9049700465
9049705958
9049713771
9049718898
9049727259
9049731471
9049739711
9049745997
9049753627
9049760462
9049766871
9049773036
9049780665
9049787196
9049794276
9049801783
9049808253
9049814356
9049821619
9049828883
9049833643
9049840907
9049845728
9049853419
9049860438
9049867274
9049872218
9049879237
9049886195
9049891810
9049898707
9049905848
9049911280
9049918543
9049924036
9049932093
9049937464
9049944666
9049950098
9049956751
9049962000
9049969996
9049975428
9049981897
9049987330
9049995691
9049999598
9050008203
9050015223
9050021875
9050025843
9050033960
9050041101
9050047632
9050051660
9050060144
9050067102
9050073572
9050079920
9050084986
9050092066
9050099024
9050107141
9050114954
9050121423
9050128565
9050134973
9050142542
9050147852
9050155420
9050162988
9050170862
9050178369
9050183435
9050190576
9050196863
9050203577
9050208276
9050216089
9050222070
9050229150
9050235559
9050244470
9050249780
9050256738
9050261987
9050269922
9050276208
9050280847
9050285974
9050294152
9050297998
9050306237
9050313073
9050319360
9050323144
9050331323
9050335107
9050343286
9050347009
9050355493
9050363305
9050370019
9050375085
9050381494
9050388574
9050394067
9050400903
9050407067
9050415612
9050421349
9050431664
9050439111
9050443322
9050450280
9050454491
9050463158
9050467858
9050474267
9050480492
9050486108
9050492150
9050497765
9050503686
9050509301
9050515282
9050519738
9050526940
9050531212
9050538048
9050544091
9050550316
9050555138
9050561730
9050567833
9050573327
9050576622
9050584069
9050590844
9050596703
9050601525
9050607506
9050613060
9050617638
9050624657
9050631310
9050637413
9050643212
9050649376
9050654991
9050659691
9050666405
9050670983
9050679772
9050685387
9050691124
9050696739
9050702843
9050708153
9050714378
9050722679
9050728844
9050734764
9050740379
9050748375
9050756615
9050763145
9050769798
9050776695
9050782921
9050788780
9050794823
9050800987
9050807091
9050813438
9050820213
9050827049
9050832298
9050839561
9050845726
9050851768
9050858421
9050865013
9050871849
9050878624
9050884300
9050889610
9050897422
9050903282
9050911521
9050916587
9050922874
9050929405
9050935997
9050942344
9050949302
9050959434
9050965293
9050973716
9050978477
9050985557
9050993797
9050999961
9051005332
9051014854
9051020042
9051026817
9051034019
9051039939
9051045249
9051053062
9051058433
9051065696
9051071128
9051079002
9051082725
9051091514
9051098472
9051103354
9051111594
9051118247
9051124290
9051130759
9051136680
9051143149
9051146872
9051155661
9051162558
9051168845
9051175925
9051180320
9051186789
9051193259
9051199302
9051203818
9051210410
9051217002
9051223899
9051229392
9051237570
9051245322
9051252158
9051259299
9051267539
9051276023
9051281699
9051289389
9051294821
9051303549
9051310812
9051317282
9051323264
9051330649
9051337119
9051343466
9051350302
9051356589
9051362265
9051369101
9051375571
9051382162
9051388510
9051395529
9051403342
9051408896
9051417319
9051425070
9051431173
9051435873
9051442099
9051447775
9051453451
9051459128
9051465475
9051471945
9051479086
9051484396
9051491842
9051499044
9051505270
9051512716
9051517416
9051524069
9051530294
9051536581
9051543112
9051548849
9051555441
9051561178
9051567526
9051573690
9051582906
9051589376
9051596700
9051602865
9051617757
9051624288
9051630758
9051636861
9051642049
9051648763
9051654134
9051661092
9051665670
9051671285
9051675619
9051682943
9051686117
9051693502
9051699422
9051704549
9051710470
9051714376
9051720662
9051726461
9051732747
9051738363
9051745076
9051750448
9051755513
9051760518
9051765706
9051770528
9051777730
9051782186
9051787801
9051792867
9051799092
9051803304
9051807759
9051816793
9051822713
9051827962
9051833455
9051837545
9051842977
9051848592
9051854573
9051860616
9051867696
9051872395
9051877950
9051882405
9051889913
9051895406
9051901753
9051905599
9051912557
9051918355
9051923787
9051929707
9051935384
9051940999
9051946980
9051953572
9051958394
9051964131
9051970540
9051975789
9051982075
9051988667
9051993977
9052001668
9052005147
9052012288
9052017537
9052025837
9052033467
9052039265
9052046345
9052050984
9052057576
9052063984
9052070454
9052075581
9052083455
9052088765
9052095967
9052100850
9052107563
9052113057
9052120442
9052127827
9052136677
9052143635
9052148091
9052154194
9052161152
9052168720
9052175862
9052184590
9052190083
9052197712
9052203632
9052209675
9052213825
9052220783
9052227497
9052233906
9052240742
9052246845
9052252888
9052257465
9052263569
9052269550
9052276813
9052283466
9052289448
9052294025
9052300678
9052307270
9052313129
9052317646
9052327167
9052332416
9052338276
9052343281
9052349994
9052355060
9052362140
9052367206
9052374714
9052381794
9052387836
9052392780
9052398822
9052406025
9052412067
9052416706
9052422992
9052430683
9052435138
9052442646
9052447040
9052453266
9052459125
9052466937
9052472125
9052479450
9052485675
9052492816
9052496661
9052505267
9052511981
9052519916
9052525714
9052532672
9052539203
9052546222
9052552875
9052558368
9052567828
9052571918
9052580218
9052585773
9052592425
9052597980
9052605914
9052612079
9052617633
9052623980
9052629596
9052635638
9052639850
9052643451
9052651751
9052658099
9052664019
9052671710
9052676104
9052682879
9052687335
9052694659
9052698931
9052705279
9052711749
9052719195
9052725238
9052732135
9052740618
9052746905
9052753863
9052761126
9052768267
9052775042
9052781756
9052788775
9052794451
9052799334
9052807574
9052813494
9052819170
9052825274
9052830462
9052836138
9052841814
9052846270
9052853167
9052857928
9052863177
9052868914
9052874590
9052880511
9052885699
9052892473
9052897417
9052903277
9052907732
9052914751
9052920305
9052925493
9052928789
9052937212
9052942949
9052946978
9052953325
9052958880
9052964434
9052970171
9052976885
9052981768
9052987932
9052993792
9052998857
9053004656
9053009905
9053014177
9053021074
9053027361
9053032671
9053037981
9053043474
9053049089
9053054949
9053060747
9053065508
9053072099
9053078508
9053084245
9053090227
9053095659
9053101885
9053107439
9053114397
9053118913
9053124834
9053130754
9053136674
9053141313
9053149065
9053154924
9053160783
9053164201
9053171770
9053177812
9053183671
9053190874
9053197099
9053203630
9053209733
9053216264
9053220842
9053227250
9053232438
9053239946
9053246782
9053252946
9053259294
9053264970
9053270036
9053277299
9053282426
9053290300
9053295793
9053303788
9053309892
9053316239
9053324052
9053330644
9053336198
9053344499
9053351029
9053355485
9053362870
9053367204
9053374406
9053378739
9053387528
9053392777
9053399796
9053404740
9053410539
9053415421
9053422929
9053427872
9053436112
9053443009
9053448991
9053452531
9053460343
9053466263
9053472367
9053476090
9053485856
9053491044
9053497086
9053503556
9053509476
9053514664
9053520646
9053526749
9053533036
9053539811
9053544388
9053550858
9053556778
9053563919
9053568558
9053576310
9053582962
9053588761
9053593705
9053600602
9053605484
9053612503
9053617569
9053624893
9053630326
9053637711
9053641312
9053649307
9053655167
9053661148
9053667801
9053673660
9053681534
9053686661
9053694046
9053699356
9053706131
9053712601
9053720291
9053727737
9053734817
9053740128
9053747879
9053755081
9053759293
9053767593
9053775284
9053782913
9053787613
9053796768
9053804580
9053809768
9053815384
9053822708
9053826492
9053835159
9053838943
9053845840
9053852310
9053857803
9053863540
9053867813
9053874466
9053880325
9053886978
9053891372
9053898025
9053904251
9053911392
9053917312
9053924942
9053931961
9053939468
9053946487
9053952896
9053956741
9053963943
9053971267
9053977004
9053983169
9053989150
9053994766
9054000747
9054005691
9054011733
9054019241
9054025100
9054030715
9054036452
9054041763
9054047561
9054052871
9054058913
9054066115
9054071181
9054076797
9054082168
9054086501
9054092299
9054096694
9054104079
9054110000
9054115188
9054120192
9054125503
9054131423
9054135512
9054142531
9054148269
9054154799
9054159926
9054166274
9054171096
9054177626
9054183364
9054191237
9054199477
9054207289
9054216201
9054224074
9054230727
9054237197
9054243239
9054249465
9054254836
9054261244
9054267653
9054273451
9054279128
9054285903
9054292433
9054297865
9054304762
9054309828
9054316176
9054322462
9054328749
9054334547
9054340773
9054345412
9054351454
9054357619
9054363661
9054371718
9054377760
9054383742
9054389906
9054396132
9054402601
9054408766
9054415053
9054422011
9054428846
9054433973
9054440504
9054445753
9054453810
9054460157
9054467237
9054472425
9054480543
9054487501
9054494520
9054502455
9054509046
9054515272
9054522474
9054530592
9054535353
9054541944
9054548292
9054555128
9054562025
9054568800
9054575697
9054580885
9054587965
9054594862
9054599928
9054607313
9054612318
9054620863
9054627882
9054633619
9054640638
9054646375
9054651868
9054660413
9054665906
9054672742
9054677930
9054684949
9054691846
9054698133
9054701856
9054709852
9054717603
9054724073
9054730909
9054737317
9054743665
9054748426
9054754956
9054761304
9054767469
9054773816
9054781140
9054786084
9054793164
9054800428
9054807508
9054813977
9054821607
9054828504
9054833997
9054840894
9054846448
9054853345
9054858899
9054863782
9054873120
9054878491
9054885816
9054891187
9054898328
9054903699
9054911206
9054916638
9054924207
9054929700
9054937329
9054943677
9054950085
9054953809
9054962109
9054967602
9054976697
9054980847
9054989758
9054994336
9055004345
9055010876
9055017407
9055023449
9055031689
9055038098
9055046948
9055052624
9055059155
9055064343
9055070874
9055076001
9055083447
9055088452
9055095410
9055100598
9055109692
9055113232
9055121594
9055126904
9055134594
9055143139
9055150463
9055157543
9055164318
9055170544
9055176830
9055185497
9055190624
9055197826
9055203014
9055208324
9055214916
9055220959
9055227550
9055233349
9055238354
9055244396
9055250988
9055256786
9055261852
9055269115
9055274181
9055281811
9055286693
9055293285
9055300243
9055305980
9055311535
9055317272
9055323192
9055328808
9055335766
9055340831
9055347118
9055351818
9055358410
9055363109
9055371471
9055374889
9055382640
9055390026
9055396434
9055401744
9055407604
9055413951
9055419811
9055424571
9055430858
9055436839
9055440990
9055448497
9055453197
9055458690
9055465282
9055471263
9055476939
9055482616
9055488292
9055494151
9055502269
9055507396
9055514415
9055519359
9055526073
9055531688
9055538463
9055544994
9055550487
9055557017
9055561473
9055569285
9055573619
9055581187
9055585521
9055595164
9055600169
9055606517
9055611644
9055618785
9055624217
9055632457
9055639720
9055646190
9055652537
9055659129
9055665599
9055672007
9055676585
9055684092
9055687815
9055699107
9055706614
9055713938
9055719676
9055727427
9055733897
9055741526
9055749156
9055755442
9055763499
9055768626
9055775462
9055780894
9055789622
9055793589
9055802195
9055808604
9055814951
9055821726
9055826609
9055834360
9055839121
9055847178
9055853403
9055858774
9055865183
9055871836
9055878184
9055883616
9055889963
9055896128
9055902476
9055909311
9055914072
9055921335
9055927622
9055933725
9055940073
9055946604
9055953562
9055959238
9055966135
9055972849
9055977610
9055984629
9055991465
9055997141
9056002268
9056010080
9056015818
9056023935
9056027719
9056035837
9056042612
9056049509
9056056162
9056062631
9056066599
9056074594
9056078378
9056087289
9056094492
9056101511
9056107614
9056113901
9056119943
9056126657
9056132822
9056138437
9056147104
9056153146
9056159250
9056164560
9056172128
9056176156
9056184213
9056189828
9056199228
9056204782
9056211435
9056218271
9056224984
9056232553
9056237680
9056246591
9056252145
9056260812
9056267343
9056274057
9056280465
9056288156
9056296579
9056305795
9056311898
9056319467
9056325997
9056333932
9056340646
9056347848
9056356088
9056366219
9056373666
9056381905
9056389840
9056396310
9056401009
9056408700
9056415231
9056420113
9056426644
9056433114
9056438180
9056445138
9056450204
9056456917
9056462044
9056469430
9056474679
9056483163
9056486886
9056494576
9056499703
9056507638
9056513558
9056519784
9056526314
9056532235
9056535958
9056543404
9056549996
9056557015
9056562874
9056567269
9056574288
9056578621
9056585457
9056591622
9056596871
9056602791
9056607857
9056614876
9056620552
9056623909
9056632027
9056635323
9056644783
9056649727
9056655342
9056660957
9056666512
9056671883
9056677437
9056684639
9056688973
9056695198
9056701424
9056707222
9056713325
9056719002
9056723762
9056730781
9056737556
9056743294
9056748787
9056754219
9056760078
9056765755
9056771797
9056778206
9056783638
9056790413
9056796882
9056802742
9056808357
9056815071
9056820991
9056827217
9056833259
9056839607
9056845222
9056850959
9056856636
9056862617
9056869392
9056876045
9056882331
9056887702
9056894416
9056899665
9056910285
9056917915
9056923713
9056930915
9056938423
9056945197
9056950752
9056960517
9056966621
9056974738
9056980354
9056987678
9056993110
9056999641
9057004951
9057013801
9057017524
9057024909
9057030219
9057038581
9057042609
9057050422
9057056647
9057064155
9057068061
9057075995
9057083137
9057089667
9057096381
9057101264
9057109443
9057115912
9057120978
9057127509
9057135016
9057141486
9057147590
9057153937
9057159858
9057166571
9057173102
9057178900
9057185065
9057189398
9057198798
9057203742
9057211432
9057218390
9057224249
9057229926
9057237799
9057243170
9057249579
9057256720
9057263983
9057269965
9057276801
9057283820
9057289191
9057295233
9057302924
9057310736
9057317145
9057324957
9057330206
9057337469
9057344549
9057351507
9057357550
9057363653
9057370184
9057376898
9057383124
9057388128
9057396124
9057402533
9057408819
9057414923
9057420965
9057427191
9057433966
9057441412
9057448919
9057455023
9057462652
9057468634
9057474310
9057482489
9057488836
9057497503
9057503729
9057512274
9057516668
9057526068
9057531194
9057540350
9057546453
9057555120
9057564764
9057570501
9057578069
9057581976
9057590276
9057595403
9057603277
9057609563
9057615667
9057622320
9057628423
9057632757
9057639287
9057646001
9057651922
9057657293
9057663885
9057670049
9057676153
9057682927
9057689275
9057696721
9057703130
9057708928
9057714177
9057722478
9057727605
9057733770
9057738836
9057747686
9057754705
9057759710
9057766729
9057772893
9057778875
9057785161
9057791143
9057795842
9057802007
9057806706
9057814885
9057818425
9057826543
9057830449
9057837895
9057843022
9057848821
9057854131
9057859685
9057866338
9057870488
9057878178
9057883061
9057889714
9057894414
9057900212
9057906743
9057911931
9057916508
9057923283
9057930119
9057935612
9057941411
9057946538
9057951665
9057957402
9057962468
9057968449
9057974736
9057979191
9057987370
9057993718
9057998478
9058006352
9058012455
9058018193
9058024235
9058029850
9058035771
9058041996
9058047978
9058053166
9058060124
9058065129
9058072209
9058077214
9058085331
9058088932
9058100102
9058107548
9058113346
9058119999
9058125248
9058134770
9058140507
9058152592
9058160343
9058166996
9058173466
9058180119
9058186588
9058190434
9058198978
9058206242
9058212711
9058217838
9058224308
9058231266
9058237797
9058244205
9058250431
9058256656
9058263004
9058270206
9058275028
9058283268
9058288578
9058295292
9058300602
9058308414
9058313907
9058321232
9058326481
9058333927
9058339908
9058347538
9058354374
9058361270
9058367923
9058374332
9058378177
9058386722
9058393253
9058399967
9058406253
9058412601
9058419315
9058425723
9058432620
9058439029
9058445987
9058452274
9058459049
9058464053
9058470767
9058477176
9058483707
9058489993
9058496646
9058503848
9058509097
9058515994
9058523990
9058529483
9058537234
9058543887
9058550052
9058558108
9058564883
9058570621
9058575870
9058583560
9058587344
9058596255
9058603152
9058609256
9058616519
9058621280
9058628299
9058635135
9058641909
9058647280
9058654483
9058661380
9058668338
9058676516
9058681826
9058690554
9058697940
9058703921
9058710208
9058716433
9058725222
9058736086
9058743960
9058751894
9058759951
9058770571
9058780703
9058786684
9058792544
9058799014
9058804995
9058809939
9058820864
9058828310
9058834963
9058841860
9058847353
9058854006
9058859316
9058866701
9058872561
9058878908
9058885439
9058893252
9058897524
9058903322
9058908938
9058914614
9058920900
9058926699
9058933291
9058939394
9058945436
9058949709
9058956179
9058962282
9058967470
9058973574
9058980043
9058986452
9058992555
9058997133
9059004091
9059007326
9059014528
9059020937
9059026308
9059032533
9059038576
9059044924
9059049806
9059058107
9059063661
9059069093
9059074587
9059080507
9059086488
9059090883
9059097169
9059101625
9059109987
9059115602
9059120790
9059126161
9059131471
9059136781
9059142335
9059148744
9059154298
9059160097
9059165101
9059171571
9059177736
9059183778
9059189332
9059193971
9059201661
9059204957
9059212404
9059217714
9059225221
9059230836
9059238343
9059243104
9059249208
9059254884
9059260865
9059266725
9059271424
9059279603
9059286744
9059293214
9059299501
9059305604
9059313600
9059321168
9059327332
9059336122
9059341004
9059348756
9059353700
9059360902
9059364442
9059373597
9059377625
9059385377
9059391419
9059397279
9059400697
9059408631
9059412049
9059421082
9059427064
9059432984
9059439881
9059444276
9059448426
9059456238
9059462403
9059468445
9059476380
9059481019
9059487122
9059493531
9059498658
9059505005
9059513306
9059518738
9059525452
9059530640
9059536377
9059542969
9059548951
9059554016
9059562134
9059569092
9059575196
9059581055
9059587097
9059593323
9059599426
9059603150
9059612976
9059617615
9059623596
9059629639
9059635681
9059641419
9059647400
9059655823
9059661133
9059669251
9059674683
9059681763
9059686646
9059693237
9059698181
9059705749
9059709778
9059718750
9059723755
9059729736
9059736206
9059742126
9059747864
9059754211
9059761108
9059767273
9059773803
9059778442
9059785095
9059791137
9059798217
9059804992
9059811889
9059817749
9059825622
9059832641
9059839477
9059846679
9059854553
9059860656
9059867980
9059875549
9059881347
9059887023
9059898071
9059902954
9059914184
9059920593
9059929077
9059938903
9059946472
9059954955
9059961486
9059969360
9059975890
9059981750
9059985717
9059992004
9059998168
9060003844
9060008117
9060015807
9060022887
9060028686
9060033813
9060039672
9060045653
9060051513
9060057555
9060064086
9060070434
9060075255
9060080993
9060087218
9060092650
9060096923
9060106139
9060111205
9060117125
9060121886
9060128966
9060133727
9060140319
9060145201
9060152648
9060158690
9060164305
9060169799
9060175719
9060179137
9060186156
9060189391
9060199828
9060205504
9060211119
9060215453
9060221190
9060227294
9060232726
9060239317
9060245116
9060250243
9060256163
9060262022
9060266478
9060271971
9060276366
9060284850
9060288451
9060295714
9060301024
9060306395
9060311827
9060317198
9060323607
9060329771
9060336058
9060340819
9060348936
9060354490
9060360167
9060366636
9060370970
9060377867
9060383604
9060388487
9060392820
9060399901
9060403013
9060411985
9060417723
9060424070
9060430479
9060436583
9060443418
9060450438
9060457884
9060465574
9060472593
9060479368
9060485777
9060492246
9060502195
9060510130
9060517515
9060523130
9060530882
9060537168
9060543882
9060549192
9060556333
9060561582
9060569395
9060575681
9060582883
9060589719
9060596494
9060602842
9060609861
9060615781
9060620969
9060627744
9060636045
9060641965
9060648557
9060655454
9060663572
9060670102
9060676023
9060682309
9060689756
9060696103
9060699949
9060707944
9060715696
9060720823
9060729428
9060733091
9060741819
9060748777
9060753598
9060760190
9060765500
9060772885
9060779294
9060785520
9060792905
9060798032
9060805051
9060811643
9060818479
9060824704
9060830991
9060838071
9060844785
9060851498
9060859189
9060864743
9060872250
9060879086
9060885373
9060891843
9060898923
9060905514
9060911435
9060918637
9060925229
9060931943
9060939023
9060944150
9060952878
9060958493
9060965024
9060972653
9060978146
9060984921
9060991269
9060998837
9061005429
9061012082
9061019345
9061027279
9061036068
9061044613
9061052792
9061064999
9061070248
9061078549
9061085934
9061092648
9061097653
9061106686
9061112545
9061118832
9061125546
9061131283
9061140499
9061146359
9061152279
9061160091
9061165279
9061172176
9061178280
9061187252
9061193661
9061200069
9061205929
9061212154
9061218136
9061226742
9061232052
9061238094
9061245418
9061250179
9061257442
9061262203
9061273678
9061279354
9061286190
9061291134
9061298824
9061305172
9061311336
9061318660
9061324764
9061331112
9061336727
9061344905
9061350826
9061355892
9061361751
9061368282
9061374141
9061379329
9061385494
9061390499
9061397701
9061402889
9061408992
9061414668
9061420467
9061428523
9061434017
9061438777
9061445552
9061451961
9061458492
9061465389
9061471309
9061477168
9061483821
9061489986
9061495174
9061502254
9061507991
9061513484
9061519710
9061525569
9061532527
9061537227
9061543941
9061550899
9061558162
9061565913
9061569270
9061578914
9061586665
9061596187
9061604365
9061609370
9061616633
9061623652
9061629206
9061635005
9061641474
9061648371
9061654475
9061660701
9061666865
9061673518
9061679499
9061686335
9061693293
9061699580
9061706599
9061711909
9061720271
9061725581
9061731928
9061739253
9061744441
9061751765
9061758601
9061765131
9061771784
9061777766
9061783930
9061791071
9061798151
9061805598
9061809443
9061818171
9061824335
9061830256
9061838068
9061843073
9061851191
9061855402
9061863276
9061870295
9061875300
9061883295
9061889460
9061896357
9061903681
9061908991
9061916498
9061920160
9061929377
9061936335
9061941706
9061951044
9061955927
9061961847
9061969538
9061976313
9061983515
9061990595
9061996820
9062003839
9062008844
9062016596
9062023615
9062029901
9062035455
9062043390
9062049860
9062055841
9062062311
9062069086
9062075555
9062082391
9062088922
9062096368
9062105890
9062114191
9062121515
9062129388
9062134149
9062143670
9062148370
9062158075
9062164728
9062171075
9062179254
9062184259
9062192132
9062196893
9062204522
9062209527
9062218194
9062222955
9062230340
9062237359
9062243707
9062249200
9062256707
9062262139
9062271234
9062277764
9062284356
9062291253
9062297357
9062303521
9062308221
9062316033
9062322320
9062328179
9062334283
9062340508
9062346612
9062351983
9062358086
9062363641
9062369744
9062376397
9062383050
9062387688
9062393792
9062399651
9062405877
9062412408
9062419121
9062424615
9062431206
9062436700
9062443474
9062449090
9062455498
9062461968
9062467034
9062474297
9062480523
9062486382
9062492302
9062498101
9062504876
9062511406
9062518670
9062524712
9062529961
9062535454
9062540825
9062547112
9062553154
9062558831
9062564019
9062570183
9062574700
9062581352
9062587639
9062593254
9062598992
9062604546
9062610954
9062615166
9062621208
9062627129
9062634453
9062641228
9062646843
9062653679
9062659843
9062666191
9062671013
9062677361
9062682182
9062689506
9062694145
9062702324
9062705620
9062715263
9062721428
9062727287
9062734306
9062741508
9062747001
9062752861
9062758293
9062762748
9062769951
9062775932
9062781364
9062786857
9062792289
9062798576
9062804069
9062809684
9062815666
9062822013
9062827873
9062833122
9062839042
9062844596
9062851738
9062858390
9062862419
9062870109
9062877189
9062883232
9062888786
9062894767
9062900932
9062906730
9062913200
9062919059
9062924430
9062930290
9062936088
9062942008
9062948844
9062953483
9062960502
9062967704
9062975211
9062981254
9062988395
9062996390
9063001823
9063008597
9063015067
9063022330
9063026847
9063034293
9063038871
9063046317
9063053519
9063059989
9063064994
9063071769
9063076651
9063084342
9063090323
9063097281
9063101188
9063108512
9063114432
9063120353
9063126822
9063132865
9063137442
9063145987
9063152274
9063156729
9063163199
9063169120
9063175345
9063181327
9063186270
9063192374
9063199332
9063205863
9063211417
9063218009
9063224051
9063228690
9063237845
9063241690
9063248892
9063254019
9063261282
9063266165
9063275137
9063282278
9063289481
9063295462
9063303030
9063311453
9063315115
9063323355
9063332022
9063338553
9063345144
9063351431
9063358206
9063363272
9063369192
9063374258
9063383047
9063388235
9063395254
9063401297
9063407278
9063412954
9063418936
9063425344
9063431387
9063437612
9063443716
9063448843
9063454885
9063460684
9063466726
9063473806
9063480154
9063487051
9063494009
9063499502
9063505666
9063510732
9063516897
9063522695
9063527334
9063534841
9063540762
9063546682
9063553152
9063557546
9063563833
9063570242
9063576406
9063581960
9063587637
9063593191
9063599233
9063603445
9063610464
9063616994
9063623891
9063628713
9063634145
9063640310
9063645681
9063651784
9063658803
9063662526
9063669545
9063674856
9063681630
9063687795
9063693532
9063696889
9063709462
9063715444
9063720876
9063726125
9063731923
9063737599
9063743520
9063749623
9063756276
9063761830
9063765065
9063772817
9063779347
9063785146
9063792287
9063798268
9063803761
9063809255
9063814809
9063820485
9063825551
9063831410
9063837392
9063843556
9063848439
9063855214
9063860097
9063866444
9063874196
9063880421
9063886525
9063892384
9063899403
9063903493
9063910084
9063914479
9063921498
9063927601
9063933217
9063939015
9063944874
9063949940
9063955433
9063962819
9063968983
9063973988
9063979908
9063984974
9063990834
9063995655
9064001637
9064008778
9064013722
9064020131
9064024708
9064031666
9064036976
9064042469
9064049855
9064056202
9064062672
9064069203
9064074635
9064081104
9064086659
9064093067
9064099720
9064104359
9064111622
9064118702
9064124622
9064129627
9064135609
9064142750
9064149159
9064155933
9064160389
9064166187
9064172962
9064178822
9064184803
9064192249
9064199146
9064206653
9064212391
9064219898
9064227405
9064234058
9064239795
9064246204
9064253467
9064260730
9064266041
9064272449
9064279834
9064284900
9064293079
9064298328
9064304798
9064309864
9064317432
9064324085
9064330005
9064334949
9064342639
9064348743
9064354907
9064361133
9064365772
9064372730
9064378833
9064386157
9064392810
9064398975
9064403552
9064410388
9064417041
9064422839
9064430103
9064438709
9064444690
9064451709
9064458484
9064465320
9064471606
9064478320
9064486682
9064492663
9064499133
9064505664
9064510852
9064517261
9064523242
9064528491
9064536548
9064541919
9064548572
9064553515
9064560962
9064564441
9064572375
9064578906
9064585132
9064591723
9064597766
9064603564
9064610339
9064615832
9064622058
9064629992
9064636218
9064643115
9064649584
9064654711
9064661181
9064668688
9064674060
9064682665
9064688952
9064693652
9064698962
9064705370
9064710131
9064717638
9064723376
9064730761
9064736681
9064742419
9064748217
9064753893
9064759875
9064765734
9064770556
9064776659
9064783495
9064789355
9064795336
9064799670
9064806505
9064810900
9064817370
9064823900
9064831225
9064836657
9064844896
9064848498
9064858263
9064865404
9064870165
9064877062
9064883776
9064888659
9064894762
9064901720
9064906359
9064912950
9064919359
9064926378
9064931383
9064936998
9064941332
9064947985
9064952989
9064960070
9064966295
9064971605
9064976793
9064981920
9064987474
9064992662
9064999620
9065004137
9065011461
9065018053
9065024278
9065030016
9065035265
9065042589
9065048753
9065055833
9065060350
9065067674
9065073167
9065078599
9065084581
9065089708
9065096910
9065101121
9065106981
9065111741
9065118089
9065123948
9065131334
9065136522
9065142137
9065148118
9065154161
9065159654
9065165391
9065174302
9065178270
9065185350
9065190721
9065196275
9065202256
9065207689
9065214097
9065223191
9065229356
9065233934
9065240525
9065244920
9065251878
9065255479
9065265550
9065269456
9065276963
9065283250
9065289231
9065294602
9065300584
9065307053
9065313340
9065319505
9065325547
9065331223
9065337083
9065344102
9065348496
9065356248
9065363389
9065368760
9065375413
9065381333
9065386216
9065392319
9065398667
9065405686
9065411484
9065416367
9065421433
9065429185
9065434861
9065440781
9065446763
9065452561
9065459275
9065467148
9065471055
9065478318
9065484360
9065490220
9065496750
9065503098
9065509690
9065515732
9065522202
9065528733
9065534409
9065538925
9065546982
9065552048
9065559616
9065564926
9065573166
9065579819
9065586960
9065594467
9065602097
9065609726
9065614731
9065622421
9065627670
9065633957
9065641159
9065650192
9065656662
9065662521
9065665878
9065673752
9065680221
9065686142
9065692001
9065698532
9065718551
9065723251
9065729111
9065735092
9065741806
9065748337
9065755478
9065761886
9065768173
9065773300
9065779586
9065784774
9065794052
9065799911
9065805832
9065809311
9065816635
9065821640
9065829208
9065832870
9065843734
9065850082
9065855087
9065862777
9065869308
9065875106
9065881637
9065889022
9065896163
9065902633
9065907333
9065913986
9065919906
9065926315
9065931136
9065937850
9065943588
9065950973
9065957626
9065963302
9065967940
9065975814
9065981002
9065989242
9065996566
9066002303
9066007796
9066012862
9066017623
9066024825
9066030684
9066037337
9066043319
9066049117
9066055159
9066061019
9066066695
9066072615
9066076033
9066085311
9066090255
9066096053
9066101607
9066107466
9066113509
9066119368
9066126082
9066132613
9066137252
9066143294
9066149886
9066154952
9066162154
9066167403
9066172652
9066178938
9066184371
9066191268
9066197066
9066204085
9066211653
9066218428
9066224593
9066231673
9066237471
9066243147
9066248518
9066254439
9066260115
9066266341
9066271712
9066277632
9066282027
9066288374
9066292525
9066300520
9066306929
9066312666
9066315962
9066323713
9066328962
9066335005
9066341169
9066347517
9066354353
9066359785
9066366621
9066372480
9066378218
9066384993
9066391035
9066396223
9066402266
9066408491
9066414595
9066420393
9066425764
9066434004
9066440779
9066447187
9066454206
9066460188
9066468122
9066475446
9066482160
9066488996
9066495466
9066502668
9066506147
9066513838
9066521467
9066528547
9066535688
9066540205
9066547651
9066553083
9066560895
9066566389
9066574689
9066578413
9066586469
9066593061
9066599714
9066607038
9066613996
9066621015
9066625837
9066632978
9066637739
9066645734
9066652692
9066659040
9066664106
9066672467
9066679548
9066686994
9066692243
9066700299
9066707196
9066713727
9066720380
9066727826
9066733075
9066739606
9066747174
9066753644
9066759137
