9358335234
9358342497
9358347136
9358352934
9358358671
9358363127
9358369475
9358373991
9358378325
9358383391
9358388701
9358395415
9358400297
9358405790
9358411833
9358417448
9358423979
9358429655
9358435942
9358441862
9358446562
9358452971
9358459196
9358467375
9358476408
9358487455
9358493437
9358500944
9358509123
9358514555
9358521330
9358530058
9358537321
9358545378
9358550443
9358560331
9358566129
9358572599
9358582731
9358590360
9358597990
9358604154
9358610197
9358616422
9358624113
9358629789
9358639738
9358650785
9358659269
9358666654
9358672574
9358681425
9358688199
9358695096
9358700956
9358708768
9358714689
9358722745
9358732023
9358737455
9358744901
9358751676
9358757901
9358765775
9358773160
9358781827
9358789090
9358795377
9358801786
9358808560
9358815518
9358823514
9358831204
9358837491
9358846585
9358853055
9358860135
9358873441
9358882169
9358889310
9358899014
9358906216
9358915799
9358924954
9358931729
9358941739
9358949490
9358957242
9358965237
9358972989
9358980557
9358989346
9358995999
9359004727
9359014065
9359019986
9359029263
9359038357
9359046048
9359053738
9359061306
9359068814
9359079922
9359086270
9359095974
9359109524
9359117092
9359124783
9359132961
9359141018
9359147976
9359157864
9359164578
9359171963
9359177517
9359186611
9359192715
9359201382
9359208645
9359215359
9359222256
9359229153
9359237270
9359246242
9359253933
9359261318
9359270901
9359281032
9359289638
9359297817
9359308986
9359316738
9359324184
9359332607
9359338527
9359347622
9359356838
9359365017
9359372768
9359379421
9359386684
9359395473
9359404140
9359412502
9359419826
9359427760
9359435634
9359443508
9359449977
9359459682
9359466823
9359474391
9359482082
9359490321
9359499965
9359509669
9359516750
9359525416
9359533778
9359541652
9359548854
9359558681
9359566554
9359573878
9359582545
9359590053
9359597926
9359604579
9359612758
9359620631
9359629481
9359636317
9359643824
9359650172
9359657679
9359665797
9359673304
9359681178
9359687159
9359696376
9359702296
9359709315
9359715785
9359725733
9359734889
9359742701
9359747462
9359759547
9359765101
9359774806
9359779810
9359790858
9359799036
9359807886
9359814112
9359821375
9359828638
9359836634
9359843775
9359851099
9359860682
9359866785
9359874170
9359882044
9359889124
9359895167
9359903406
9359909571
9359918543
9359924646
9359933558
9359940454
9359947840
9359951990
9359960962
9359967432
9359977381
9359986109
9359992212
9360000574
9360008386
9360012537
9360024256
9360031946
9360039270
9360046777
9360052515
9360061243
9360069177
9360075830
9360081567
9360089502
9360097070
9360104517
9360110681
9360119348
9360125513
9360134546
9360141626
9360150171
9360157129
9360164514
9360171655
9360179040
9360183374
9360193384
9360200586
9360207666
9360211999
9360222009
9360228845
9360235559
9360242151
9360248742
9360257348
9360264917
9360272180
9360279321
9360286706
9360292993
9360301171
9360308435
9360317285
9360324609
9360331933
9360339013
9360346398
9360354150
9360362389
9360370751
9360378075
9360386071
9360393761
9360400719
9360407738
9360414880
9360424584
9360431725
9360439843
9360448022
9360455224
9360464013
9360475548
9360484215
9360492211
9360500817
9360508873
9360516259
9360524132
9360531823
9360540062
9360546288
9360554039
9360560692
9360567711
9360574913
9360583092
9360590355
9360598595
9360605614
9360613182
9360619286
9360626854
9360633934
9360641197
9360649071
9360656578
9360662499
9360671471
9360679405
9360687767
9360694054
9360700767
9360710411
9360718162
9360724815
9360730797
9360736229
9360743309
9360752647
9360759056
9360764915
9360771263
9360776939
9360783897
9360790184
9360797996
9360805015
9360810630
9360818565
9360822349
9360830101
9360837791
9360843528
9360851280
9360857322
9360864219
9360871910
9360878379
9360887290
9360892723
9360897666
9360907798
9360915794
9360921287
9360929405
9360934532
9360943015
9360949058
9360957542
9360964378
9360971885
9360978904
9360983970
9360992271
9360998740
9361005881
9361014365
9361021751
9361028342
9361035606
9361043967
9361053062
9361060630
9361067405
9361075339
9361082419
9361088889
9361096152
9361104514
9361111777
9361119590
9361128867
9361136802
9361143943
9361151816
9361158835
9361167258
9361172873
9361181723
9361189536
9361196189
9361204001
9361211142
9361219016
9361228049
9361236411
9361243796
9361250205
9361257346
9361265463
9361273276
9361279379
9361289023
9361295309
9361302084
9361309775
9361314291
9361324362
9361331930
9361337790
9361344809
9361354941
9361359884
9361370688
9361375631
9361386068
9361390890
9361400595
9361407736
9361415182
9361421591
9361430746
9361437216
9361444967
9361451498
9361459494
9361465475
9361472860
9361480551
9361487814
9361495565
9361501119
9361508993
9361516928
9361522665
9361531515
9361538778
9361544210
9361551595
9361556112
9361565450
9361572164
9361578390
9361584921
9361590841
9361601400
9361608785
9361615499
9361622274
9361628927
9361634176
9361641683
9361646932
9361654378
9361659566
9361667074
9361670858
9361679159
9361683614
9361692403
9361699056
9361703695
9361711019
9361715596
9361721517
9361728536
9361734700
9361740804
9361746846
9361752950
9361757955
9361763997
9361770772
9361777120
9361782857
9361788289
9361793660
9361799336
9361805196
9361810872
9361816915
9361824239
9361832173
9361839070
9361845967
9361850667
9361856526
9361862325
9361868123
9361874715
9361880818
9361886433
9361891133
9361897359
9361902058
9361908284
9361913045
9361921406
9361924763
9361931599
9361937215
9361944234
9361949666
9361955281
9361960408
9361966328
9361972737
9361978718
9361985737
9361992329
9361999165
9362005330
9362013630
9362021016
9362026814
9362033039
9362038899
9362044697
9362049214
9362056965
9362061299
9362068196
9362072895
9362079670
9362084126
9362090229
9362094990
9362102192
9362109577
9362115559
9362121235
9362127522
9362135151
9362140217
9362147602
9362153278
9362159138
9362162556
9362170490
9362176533
9362182575
9362190937
9362195820
9362202228
9362208210
9362214374
9362218952
9362226581
9362231342
9362240192
9362245502
9362252277
9362257160
9362264179
9362269306
9362276447
9362282123
9362289936
9362293720
9362300861
9362305744
9362312214
9362317096
9362324726
9362332172
9362338337
9362343586
9362349689
9362356220
9362362201
9362367328
9362373737
9362381916
9362386676
9362392963
9362399494
9362406268
9362413165
9362420612
9362427448
9362435443
9362439716
9362447894
9362451801
9362460162
9362464252
9362472980
9362480670
9362486957
9362488910
9362497638
9362503741
9362509906
9362516376
9362521014
9362528949
9362533588
9362539752
9362546222
9362552569
9362557208
9362563434
9362570392
9362576922
9362582354
9362589618
9362594928
9362602923
9362608416
9362615191
9362623614
9362630328
9362635577
9362641497
9362645587
9362652911
9362658648
9362664752
9362672808
9362677813
9362683917
9362689837
9362696063
9362702593
9362707903
9362714922
9362722186
9362727557
9362733904
9362739031
9362744952
9362750323
9362757647
9362765398
9362770098
9362777239
9362783709
9362789996
9362796099
9362804461
9362810259
9362816546
9362821734
9362828814
9362834307
9362840838
9362844378
9362851275
9362859820
9362864641
9362871050
9362876665
9362882708
9362888323
9362894365
9362898699
9362906145
9362912615
9362917681
9362923845
9362929644
9362933916
9362940996
9362946672
9362953875
9362959062
9362966020
9362970903
9362976091
9362981157
9362989153
9362994646
9363001116
9363007463
9363013323
9363019548
9363025102
9363030351
9363036699
9363043047
9363046526
9363053362
9363057817
9363063921
9363069170
9363074480
9363081804
9363087602
9363092241
9363097490
9363103227
9363108598
9363114580
9363118913
9363125810
9363131853
9363136796
9363141740
9363147783
9363153825
9363161821
9363168596
9363175493
9363181657
9363185991
9363192277
9363196916
9363204667
9363210527
9363215165
9363221452
9363226945
9363232560
9363238115
9363244035
9363251603
9363257768
9363262895
9363268815
9363273515
9363280412
9363285050
9363291337
9363297441
9363304765
9363311540
9363317033
9363322343
9363328751
9363339616
9363344560
9363351640
9363359391
9363365189
9363372147
9363379105
9363385026
9363390702
9363399308
9363404618
9363410844
9363417679
9363423844
9363430802
9363436051
9363444230
9363450333
9363457657
9363462784
9363469925
9363474198
9363482865
9363487809
9363495987
9363502762
9363509354
9363516190
9363521805
9363529312
9363537552
9363542679
9363551041
9363555802
9363564957
9363573075
9363580704
9363589432
9363594742
9363601944
9363607437
9363615921
9363623856
9363630509
9363637711
9363644058
9363650772
9363657242
9363663712
9363670792
9363677322
9363683487
9363690994
9363696426
9363703506
9363710525
9363716568
9363721634
9363727676
9363734695
9363741287
9363746902
9363754410
9363760879
9363768631
9363772781
9363781509
9363787430
9363793716
9363800369
9363807022
9363813308
9363818435
9363825943
9363832717
9363839004
9363845596
9363852310
9363859085
9363865982
9363872817
9363880874
9363885879
9363891555
9363899001
9363904128
9363911697
9363917739
9363923843
9363928481
9363936599
9363942825
9363948745
9363954421
9363960281
9363967056
9363971572
9363978896
9363983718
9363990615
9363995010
9364001907
9364008132
9364012954
9364019485
9364026565
9364031692
9364037246
9364042373
9364049209
9364054030
9364060805
9364066482
9364072280
9364079238
9364085463
9364092482
9364098952
9364106276
9364111892
9364118422
9364125197
9364130324
9364136489
9364141860
9364146682
9364152724
9364159011
9364168166
9364175063
9364180983
9364187514
9364192885
9364197280
9364202712
9364210036
9364214186
9364220778
9364224806
9364230666
9364236220
9364241103
9364247267
9364253371
9364259535
9364265150
9364270338
9364275587
9364281264
9364286940
9364292433
9364297987
9364303603
9364307509
9364314162
9364318068
9364324843
9364330214
9364338576
9364343580
9364349684
9364354078
9364361220
9364364454
9364372938
9364378187
9364384108
9364390028
9364394117
9364400099
9364405836
9364411024
9364418043
9364425489
9364431105
9364439955
9364446791
9364455213
9364461805
9364467970
9364474439
9364479322
9364485609
9364490492
9364496473
9364502027
9364507643
9364515760
9364521742
9364527845
9364532911
9364538709
9364544264
9364550245
9364555860
9364562330
9364567091
9364573804
9364578443
9364585157
9364590223
9364597242
9364601453
9364611097
9364615674
9364622205
9364628675
9364634717
9364638257
9364645887
9364653089
9364659559
9364665723
9364671827
9364677564
9364683484
9364689161
9364695508
9364702466
9364707410
9364713575
9364721143
9364727307
9364732556
9364740552
9364746167
9364755750
9364761121
9364768628
9364773755
9364779676
9364784680
9364791455
9364797009
9364805249
9364809216
9364819409
9364825818
9364832959
9364839612
9364845044
9364852551
9364857983
9364864697
9364870068
9364877087
9364882458
9364890698
9364896374
9364903638
9364914563
9364922864
9364929516
9364936352
9364941235
9364949353
9364956006
9364962292
9364969555
9364975964
9364981823
9364989270
9364995373
9365003125
9365009533
9365015698
9365021191
9365027661
9365034436
9365041638
9365047497
9365053723
9365062084
9365067700
9365074719
9365080822
9365086498
9365094738
9365099987
9365106579
9365114025
9365118969
9365125622
9365133984
9365138439
9365146679
9365150768
9365159985
9365167431
9365174389
9365182445
9365187633
9365199352
9365204540
9365210705
9365218578
9365223644
9365231396
9365236461
9365243969
9365249279
9365257580
9365262096
9365269848
9365276928
9365284008
9365290538
9365296947
9365302379
9365309215
9365320568
9365326671
9365335765
9365342723
9365349132
9365355297
9365360179
9365365734
9365372508
9365378734
9365384654
9365391368
9365398937
9365406688
9365413158
9365417735
9365424938
9365431224
9365435680
9365443797
9365449413
9365454784
9365459789
9365465160
9365468272
9365476268
9365485057
9365491832
9365499950
9365504649
9365512401
9365518077
9365524058
9365530040
9365534434
9365542003
9365545115
9365552562
9365559215
9365563426
9365571238
9365576243
9365582225
9365588572
9365594310
9365599315
9365608165
9365615306
9365621959
9365628306
9365631785
9365639231
9365645396
9365651316
9365659434
9365664195
9365672923
9365679453
9365684825
9365690013
9365695811
9365703013
9365708018
9365714793
9365720225
9365726511
9365732981
9365739451
9365745676
9365751414
9365757456
9365764719
9365770823
9365776255
9365783518
9365789683
9365796336
9365803416
9365809580
9365816294
9365820811
9365828379
9365834238
9365842295
9365849070
9365854746
9365863047
9365870066
9365877390
9365886911
9365894541
9365900705
9365907724
9365913950
9365919809
9365927195
9365933298
9365941049
9365947092
9365953928
9365960214
9365967600
9365974069
9365980478
9365988657
9365994821
9366001413
9366008676
9366015939
9366022958
9366029123
9366035776
9366043588
9366048166
9366057077
9366064828
9366071542
9366078744
9366084116
9366091135
9366098093
9366104135
9366110971
9366117441
9366122751
9366128915
9366134347
9366141855
9366148813
9366155282
9366161752
9366168283
9366175363
9366181833
9366188913
9366193856
9366201303
9366207833
9366213082
9366219552
9366228463
9366233224
9366239816
9366246713
9366252877
9366259896
9366266000
9366270883
9366278939
9366283944
9366292245
9366297677
9366304025
9366311593
9366318246
9366325753
9366333260
9366339425
9366346566
9366352486
9366359811
9366367379
9366373910
9366379769
9366387337
9366392098
9366401925
9366408944
9366415841
9366422371
9366427743
9366435494
9366441414
9366447091
9366451485
9366457161
9366463509
9366469552
9366477730
9366484444
9366490548
9366495308
9366502327
9366508797
9366514840
9366520699
9366527962
9366533089
9366539742
9366545662
9366551338
9366554634
9366562386
9366569527
9366575081
9366579659
9366586189
9366590584
9366595772
9366601753
9366607735
9366614021
9366618782
9366625679
9366631844
9366637459
9366645088
9366650032
9366658516
9366663216
9366671394
9366677376
9366682564
9366688362
9366692573
9366699654
9366704841
9366710762
9366715278
9366721809
9366724739
9366732002
9366739631
9366745369
9366750862
9366756050
9366762397
9366766365
9366772346
9366778450
9366784126
9366789131
9366795478
9366800605
9366806404
9366811653
9366817146
9366824714
9366829109
9366835945
9366840034
9366845832
9366851264
9366857063
9366863594
9366870796
9366874336
9366881355
9366885993
9366893012
9366898689
9366904243
9366910774
9366916938
9366922614
9366928657
9366933967
9366939887
9366946357
9366952827
9366959968
9366965095
9366971870
9366976936
9366984443
9366990241
9366996345
9367002936
9367009284
9367015449
9367021369
9367027106
9367033759
9367040290
9367047675
9367056281
9367061591
9367069159
9367075507
9367081611
9367086249
9367093512
9367100592
9367107123
9367112494
9367118659
9367123542
9367130988
9367136603
9367142951
9367150275
9367156806
9367161811
9367168158
9367173956
9367179999
9367185675
9367191840
9367199896
9367204779
9367210700
9367217474
9367225592
9367230597
9367237372
9367242621
9367249823
9367255072
9367262030
9367268378
9367274298
9367279974
9367286627
9367294379
9367300726
9367306158
9367312201
9367318426
9367324408
9367330145
9367336981
9367343939
9367349127
9367355230
9367361822
9367367865
9367373053
9367379400
9367385443
9367393377
9367398748
9367405645
9367409979
9367417669
9367422674
9367429876
9367435552
9367444708
9367448248
9367456060
9367459478
9367467535
9367474615
9367480902
9367488470
9367493353
9367500372
9367505071
9367512151
9367519415
9367525030
9367533208
9367539617
9367545232
9367552496
9367559576
9367565679
9367570440
9367576849
9367583562
9367591192
9367597661
9367606084
9367611761
9367618535
9367624517
9367630376
9367639165
9367644109
9367650945
9367657720
9367665349
9367672185
9367677861
9367682866
9367689885
9367695134
9367702642
9367706060
9367713323
9367719182
9367724980
9367732549
9367738957
9367744695
9367748906
9367756047
9367760808
9367766912
9367772161
9367778447
9367783452
9367790410
9367793645
9367800786
9367806706
9367812566
9367820439
9367827336
9367833134
9367839177
9367844121
9367849736
9367855778
9367860295
9367867436
9367870915
9367878117
9367881291
9367888554
9367893132
9367899968
9367905705
9367911748
9367917180
9367921513
9367927250
9367931523
9367938542
9367944401
9367950200
9367957097
9367962895
9367968449
9367972905
9367979924
9367986515
9367991764
9367998173
9368003849
9368009648
9368014531
9368021977
9368028813
9368034184
9368040715
9368046513
9368051274
9368057133
9368062626
9368067631
9368075566
9368081974
9368088078
9368094608
9368100895
9368106571
9368113590
9368119877
9368124943
9368132938
9368139225
9368143925
9368151554
9368158024
9368164799
9368169620
9368176212
9368182377
9368188663
9368195560
9368201786
9368208927
9368216434
9368223881
9368230839
9368236210
9368243290
9368249637
9368254581
9368262455
9368268680
9368274295
9368280216
9368287418
9368292118
9368298648
9368305484
9368311832
9368317447
9368324100
9368329105
9368336185
9368341068
9368347721
9368353336
9368360660
9368367252
9368373783
9368379947
9368386600
9368393924
9368399295
9368408695
9368413394
9368420230
9368426822
9368433170
9368438235
9368443973
9368451785
9368458743
9368464053
9368470706
9368475772
9368481814
9368487002
9368493716
9368499148
9368506839
9368513064
9368520999
9368527408
9368533877
9368541079
9368545962
9368553958
9368560794
9368566531
9368573428
9368578616
9368585818
9368592105
9368599429
9368606509
9368610354
9368617923
9368622805
9368630130
9368636111
9368640505
9368649722
9368656130
9368662417
9368668398
9368674502
9368680483
9368686038
9368692812
9368700198
9368704897
9368712038
9368716494
9368722537
9368728518
9368735842
9368741396
9368750124
9368755801
9368761660
9368768557
9368774111
9368780825
9368786928
9368792300
9368802309
9368808169
9368814333
9368822390
9368829348
9368835817
9368841860
9368847963
9368856142
9368861330
9368867250
9368874453
9368880739
9368885683
9368893251
9368899965
9368906008
9368911806
9368917849
9368923281
9368930361
9368936342
9368943239
9368948549
9368953615
9368960695
9368965883
9368973268
9368981081
9368988954
9368997011
9369003908
9369008119
9369015993
9369020876
9369027589
9369034181
9369038637
9369045778
9369050966
9369057191
9369065980
9369071352
9369077760
9369083314
9369090028
9369096376
9369102601
9369107973
9369117616
9369123109
9369128847
9369134645
9369140382
9369146303
9369153322
9369159669
9369166261
9369173890
9369178834
9369188356
9369194032
9369199586
9369206239
9369211915
9369219850
9369225526
9369231141
9369237611
9369242311
9369249696
9369255921
9369262696
9369269532
9369275147
9369281617
9369287599
9369292787
9369301148
9369308411
9369312867
9369320435
9369325990
9369333375
9369341615
9369348878
9369356080
9369365296
9369371461
9369377259
9369384339
9369393433
9369398621
9369406312
9369411561
9369419251
9369424927
9369432679
9369440003
9369446412
9369450257
9369459595
9369466370
9369471192
9369477845
9369484192
9369491272
9369497925
9369504578
9369511048
9369518677
9369524292
9369532410
9369537903
9369545227
9369552063
9369559326
9369564270
9369572022
9369576965
9369584351
9369589295
9369597534
9369602417
9369609985
9369617981
9369623901
9369630676
9369637268
9369641235
9369649170
9369656067
9369662476
9369668518
9369674988
9369681457
9369690185
9369697571
9369702637
9369710510
9369717468
9369724182
9369728943
9369736389
9369741211
9369749206
9369754272
9369762695
9369768066
9369773986
9369780944
9369787658
9369793090
9369799133
9369806091
9369813232
9369818603
9369825805
9369831115
9369838073
9369843383
9369850036
9369855468
9369863769
9369869995
9369875732
9369881286
9369889465
9369895324
9369903075
9369910156
9369916320
9369922240
9369929259
9369934631
9369943114
9369948974
9369956969
9369963317
9369971191
9369979491
9369986144
9369993773
9370001525
9370007445
9370014342
9370019958
9370026244
9370032897
9370038817
9370044860
9370052367
9370056945
9370064269
9370070494
9370077330
9370081969
9370089782
9370094481
9370101500
9370108336
9370115355
9370120665
9370127745
9370133238
9370140074
9370145323
9370152281
9370158507
9370169554
9370177123
9370182311
9370189818
9370194945
9370201781
9370208006
9370215636
9370220335
9370226683
9370231505
9370237913
9370242613
9370249998
9370253294
9370261778
9370267149
9370272764
9370278380
9370284422
9370290037
9370296446
9370302489
9370307066
9370314329
9370317869
9370325987
9370331602
9370337401
9370342955
9370348448
9370355345
9370361692
9370367796
9370372618
9370378477
9370383665
9370391600
9370397337
9370402891
9370406248
9370413938
9370420103
9370425962
9370431455
9370437193
9370443174
9370449217
9370455320
9370461057
9370467222
9370471861
9370479124
9370485410
9370491758
9370496702
9370502439
9370508848
9370514219
9370520567
9370526975
9370532041
9370538816
9370544553
9370552122
9370556333
9370564573
9370573301
9370578672
9370586484
9370593076
9370599546
9370605894
9370612485
9370617856
9370626951
9370631833
9370638791
9370645749
9370651426
9370656369
9370665158
9370670224
9370678159
9370683042
9370690366
9370697263
9370703061
9370708066
9370715268
9370722959
9370729184
9370736203
9370741941
9370750302
9370756894
9370763120
9370770200
9370780209
9370786618
9370790341
9370798215
9370804623
9370811032
9370817258
9370823788
9370828366
9370836606
9370843564
9370850095
9370856564
9370863156
9370870053
9370876523
9370881894
9370887936
9370895627
9370900815
9370907773
9370914303
9370920712
9370927914
9370934079
9370941281
9370947445
9370952877
9370960507
9370965939
9370972348
9370977719
9370985775
9370992611
9370997616
9371002804
9371009945
9371015682
9371021908
9371029598
9371043026
9371049801
9371056271
9371061520
9371068905
9371075192
9371082882
9371089108
9371095394
9371101681
9371109249
9371115902
9371122372
9371128048
9371135250
9371141720
9371148556
9371155453
9371162472
9371172237
9371182735
9371190059
9371196590
9371203853
9371210323
9371217647
9371223324
9371230648
9371236080
9371244136
9371250667
9371257137
9371263607
9371271663
9371277584
9371283931
9371289119
9371295223
9371301509
9371307674
9371313594
9371319820
9371326229
9371332515
9371338375
9371343013
9371349788
9371356380
9371362666
9371368587
9371376460
9371385127
9371391780
9371398067
9371402889
9371409785
9371416805
9371422969
9371429744
9371435847
9371440669
9371447871
9371452693
9371458308
9371463374
9371471614
9371477656
9371483333
9371489314
9371495112
9371500850
9371505244
9371513484
9371517634
9371524531
9371528682
9371536189
9371540950
9371546870
9371551753
9371558162
9371562983
9371570247
9371574946
9371581599
9371586299
9371593623
9371599543
9371605281
9371611323
9371617304
9371622798
9371628413
9371634455
9371640620
9371646357
9371652644
9371659052
9371663874
9371670405
9371675166
9371681757
9371687861
9371693781
9371699580
9371706904
9371712946
9371717585
9371724665
9371731989
9371738947
9371744013
9371749689
9371756953
9371763239
9371766840
9371774775
9371784968
9371792536
9371799311
9371806330
9371810908
9371818781
9371823664
9371830134
9371836176
9371843561
9371849665
9371855524
9371861567
9371868036
9371875055
9371881403
9371887140
9371893549
9371900141
9371906671
9371912287
9371918817
9371926386
9371933222
9371939386
9371945001
9371953974
9371960077
9371967035
9371973139
9371981073
9371986444
9371993402
9371998895
9372005365
9372010858
9372018854
9372024957
9372032098
9372037591
9372045404
9372049188
9372058160
9372061944
9372070856
9372077936
9372084405
9372090265
9372096185
9372102228
9372108087
9372113031
9372119195
9372127069
9372132135
9372138299
9372144159
9372151727
9372156244
9372162713
9372170282
9372176934
9372182489
9372189263
9372194268
9372201043
9372206048
9372213128
9372218621
9372226129
9372233575
9372240350
9372246392
9372252801
9372261590
9372266961
9372275140
9372281609
9372287835
9372291558
9372299554
9372305962
9372312493
9372318658
9372325616
9372331780
9372338616
9372344903
9372350091
9372356255
9372362054
9372373650
9372382012
9372389153
9372394585
9372400445
9372407891
9372413506
9372421685
9372428582
9372434990
9372442070
9372448540
9372453972
9372461113
9372468682
9372475029
9372479790
9372485955
9372492668
9372498833
9372504082
9372510369
9372517143
9372523369
9372529350
9372533928
9372540276
9372546440
9372554009
9372558830
9372566094
9372572929
9372581841
9372588921
9372593620
9372598869
9372607353
9372614677
9372619255
9372625969
9372632072
9372637443
9372643608
9372647209
9372655754
9372662590
9372668815
9372674126
9372680412
9372686638
9372692375
9372698478
9372704155
9372709953
9372716057
9372722343
9372727226
9372733757
9372738701
9372746025
9372751518
9372756889
9372763054
9372768730
9372775505
9372779655
9372786491
9372793754
9372799369
9372804252
9372811027
9372815788
9372822563
9372827568
9372834098
9372839530
9372847282
9372850822
9372858329
9372864494
9372870109
9372875175
9372882377
9372889396
9372893852
9372900382
9372904350
9372911613
9372916007
9372921500
9372926078
9372932609
9372937858
9372946403
9372952811
9372958121
9372965079
9372970450
9372978568
9372982352
9372991996
9372994010
9373004020
9373009757
9373015922
9373024161
9373028617
9373036307
9373042960
9373049430
9373056510
9373062491
9373068900
9373075186
9373081717
9373086722
9373093436
9373098258
9373106742
9373110648
9373119803
9373123648
9373132804
9373139029
9373146231
9373150382
9373158255
9373165701
9373172049
9373175772
9373184134
9373190665
9373197134
9373204031
9373210501
9373216483
9373222830
9373229361
9373235770
9373241873
9373248221
9373255240
9373262198
9373268545
9373275076
9373280691
9373287222
9373294180
9373300650
9373306204
9373312857
9373320059
9373326590
9373333792
9373338736
9373346365
9373351309
9373359426
9373366323
9373373159
9373378591
9373385000
9373392568
9373397940
9373404837
9373410391
9373417837
9373424246
9373429678
9373436392
9373441702
9373448416
9373455435
9373461843
9373467642
9373474355
9373479726
9373488271
9373493642
9373499746
9373505178
9373512563
9373518423
9373525991
9373535207
9373541677
9373547964
9373554311
9373558095
9373568166
9373574209
9373584157
9373590810
9373601308
9373605459
9373616750
9373623281
9373629628
9373635915
9373642934
9373649343
9373656606
9373662221
9373667836
9373677175
9373683461
9373693715
9373698720
9373712575
9373721791
9373727651
9373736196
9373741200
9373750050
9373756764
9373763478
9373771779
9373776662
9373788197
9373794301
9373801259
9373808522
9373813283
9373820119
9373827016
9373833852
9373839101
9373846364
9373851491
9373857228
9373863820
9373869496
9373874684
9373882557
9373887684
9373893849
9373899037
9373905446
9373910573
9373917408
9373923512
9373932179
9373935658
9373944203
9373948048
9373955861
9373961537
9373967396
9373973866
9373979298
9373984242
9373990101
9373995961
9374001637
9374008717
9374013539
9374019825
9374024586
9374031727
9374037464
9374043080
9374049244
9374055164
9374061817
9374066456
9374072559
9374078419
9374083851
9374090565
9374096363
9374102589
9374108143
9374114796
9374118946
9374126087
9374130726
9374136829
9374144642
9374150196
9374156177
9374162159
9374166859
9374173572
9374180225
9374186146
9374200977
9374207386
9374213184
9374219410
9374226185
9374232654
9374237659
9374245350
9374251331
9374256397
9374263904
9374269031
9374276172
9374282398
9374288379
9374293994
9374299915
9374305957
9374311817
9374319019
9374323718
9374331226
9374337451
9374343372
9374350330
9374356738
9374365466
9374372302
9374380420
9374386707
9374393359
9374400745
9374406909
9374411975
9374419299
9374426318
9374432788
9374437610
9374444568
9374451465
9374457995
9374463061
9374470935
9374478198
9374484057
9374491015
9374496631
9374502185
9374510425
9374515857
9374523181
9374528857
9374535937
9374541858
9374548755
9374556201
9374562609
9374567981
9374574511
9374581530
9374588000
9374593859
9374600329
9374607287
9374613635
9374619799
9374626269
9374632433
9374638903
9374645129
9374651476
9374657641
9374662463
9374670458
9374677905
9374683703
9374690844
9374697009
9374704089
9374709826
9374714709
9374721728
9374729113
9374736559
9374741930
9374749132
9374754442
9374760790
9374766283
9374774645
9374780932
9374789232
9374796007
9374802904
9374809618
9374815294
9374824083
9374829271
9374835863
9374843920
9374850939
9374857531
9374864183
9374870653
9374875597
9374883654
9374890184
9374896593
9374902025
9374908434
9374915453
9374921922
9374928148
9374933031
9374940782
9374945604
9374953905
9374958849
9374966051
9374973192
9374979967
9374987169
9374999254
9375006395
9375012743
9375019151
9375025255
9375031297
9375038560
9375044420
9375049364
9375057115
9375062486
9375070177
9375076768
9375083970
9375090745
9375096910
9375103563
9375109788
9375116319
9375121202
9375127671
9375134019
9375144273
9375150682
9375156968
9375163133
9375169297
9375175523
9375181748
9375186082
9375192857
9375199143
9375205247
9375211839
9375217942
9375222642
9375228806
9375235825
9375241075
9375246934
9375252610
9375258714
9375264451
9375270249
9375276719
9375282639
9375288865
9375293931
9375300156
9375305650
9375310410
9375317734
9375323106
9375328721
9375334702
9375340195
9375346726
9375352708
9375358445
9375363206
9375371140
9375376877
9375382859
9375388413
9375393235
9375401169
9375406601
9375416855
9375424118
9375430527
9375436387
9375443955
9375449814
9375456589
9375462632
9375469284
9375474411
9375481064
9375487534
9375493576
9375500046
9375505722
9375513230
9375519638
9375525131
9375531479
9375537033
9375542221
9375549973
9375554978
9375561325
9375566391
9375574265
9375581345
9375588181
9375592392
9375600327
9375607590
9375613327
9375619553
9375624496
9375631882
9375635605
9375648178
9375654220
9375660751
9375668808
9375673813
9375681381
9375689316
9375694809
9375701645
9375708603
9375714340
9375721786
9375727340
9375734420
9375740158
9375747604
9375753097
9375760971
9375766464
9375772872
9375780929
9375787338
9375793685
9375801620
9375807907
9375812789
9375820907
9375825790
9375833541
9375838607
9375846603
9375853622
9375859298
9375864608
9375871627
9375876937
9375884017
9375890975
9375898605
9375906112
9375912337
9375919417
9375924667
9375932174
9375938705
9375947677
9375953414
9375959884
9375968123
9375973189
9375980208
9375987288
9375994246
9376005294
9376014632
9376020491
9376027755
9376036483
9376044051
9376050643
9376056746
9376062606
9376068648
9376072310
9376079756
9376087264
9376093733
9376099959
9376106001
9376110335
9376117720
9376124312
9376130904
9376137618
9376144026
9376150191
9376156600
9376162520
9376166975
9376173018
9376179854
9376186812
9376197249
9376204817
9376213301
9376217024
9376226363
9376232771
9376237654
9376244856
9376249251
9376255049
9376260725
9376267012
9376271589
9376279097
9376285872
9376292402
9376296919
9376302839
9376309248
9376314741
9376321577
9376328657
9376336714
9376342268
9376348249
9376352461
9376357283
9376364180
9376372297
9376376753
9376383711
9376387983
9376394026
9376399763
9376408247
9376414778
9376422041
9376427473
9376434919
9376440840
9376446821
9376453596
9376460310
9376467085
9376473798
9376479536
9376485883
9376491499
9376497663
9376505109
9376509321
9376517316
9376521711
9376527631
9376533430
9376538679
9376545698
9376551923
9376558088
9376563764
9376570417
9376576703
9376585126
9376590619
9376597883
9376604596
9376610212
9376617231
9376621747
9376629743
9376634443
9376641156
9376645917
9376652082
9376656903
9376663922
9376668805
9376675702
9376681928
9376687970
9376692304
9376699018
9376705548
9376711469
9376718122
9376724164
9376729962
9376736005
9376742108
9376749310
9376755536
9376763043
9376770245
9376775372
9376782147
9376787152
9376793805
9376799420
9376806134
9376812054
9376818097
9376821698
9376829938
9376840130
9376844525
9376851910
9376858990
9376865399
9376872296
9376879193
9376884686
9376892560
9376896771
9376905560
9376912579
9376918988
9376922833
9376930890
9376937420
9376943890
9376950909
9376957440
9376965741
9376970684
9376978192
9376982769
9376989544
9376996258
9377003033
9377007977
9377016033
9377023358
9377028668
9377035259
9377041302
9377046246
9377052288
9377059185
9377065105
9377070660
9377078167
9377083355
9377089397
9377094524
9377102398
9377109417
9377115765
9377119366
9377126507
9377132244
9377138653
9377145122
9377151287
9377158672
9377165020
9377170574
9377177410
9377184185
9377191082
9377197674
9377204998
9377213482
9377218670
9377225078
9377229534
9377236797
9377241252
9377248210
9377255168
9377261943
9377267375
9377274944
9377278423
9377285869
9377290874
9377297649
9377305400
9377311748
9377315471
9377323467
9377327190
9377335368
9377342326
9377348735
9377356120
9377361614
9377369243
9377374431
9377381206
9377387920
9377393230
9377400798
9377407085
9377412700
9377419170
9377425761
9377431865
9377437053
9377444743
9377453227
9377461467
9377469584
9377476909
9377483073
9377489909
9377498149
9377503642
9377510173
9377515117
9377521891
9377526652
9377532695
9377537455
9377543071
9377548075
9377555461
9377560832
9377569621
9377577616
9377584025
9377591288
9377598124
9377604045
9377609416
9377616862
9377621989
9377629313
9377634440
9377640360
9377646891
9377654887
9377658366
9377666117
9377671793
9377677470
9377682902
9377688578
9377692484
9377700907
9377707011
9377711893
9377717203
9377722697
9377728556
9377733011
9377740275
9377745341
9377752238
9377756754
9377763041
9377767557
9377775370
9377781473
9377788187
9377795084
9377800943
9377806192
9377811380
9377817057
9377824259
9377829508
9377834330
9377841410
9377846659
9377851969
9377857645
9377863138
9377869852
9377875589
9377880350
9377885660
9377891825
9377895853
9377902689
9377908853
9377914408
9377919168
9377926920
9377933634
9377939920
9377947916
9377954813
9377961221
9377966226
9377972147
9377976785
9377983560
9377988138
9377994852
9378001199
9378007181
9378013162
9378018777
9378024454
9378030313
9378035501
9378042642
9378048440
9378053628
9378060281
9378066324
9378072793
9378078653
9378083291
9378091165
9378097635
9378101114
9378108560
9378114969
9378120889
9378126687
9378132913
9378140542
9378145181
9378151345
9378157388
9378163797
9378169839
9378176065
9378180886
9378188577
9378196145
9378202188
9378207437
9378214150
9378218789
9378226113
9378232156
9378239724
9378245034
9378252053
9378257241
9378264321
9378269448
9378277077
9378284158
9378290383
9378296914
9378302956
9378307961
9378313821
9378320351
9378326638
9378333230
9378339455
9378344399
9378351174
9378358315
9378363015
9378370644
9378378029
9378384377
9378390175
9378397500
9378402810
9378410012
9378415200
9378421181
9378428994
9378435280
9378441567
9378448464
9378455666
9378462624
9378470803
9378476662
9378482887
9378488198
9378495766
9378499245
9378506935
9378511879
9378518959
9378525917
9378532448
9378540077
9378546547
9378554115
9378559364
9378566139
9378571999
9378579079
9378584572
9378591774
9378596901
9378604042
9378609169
9378616127
9378620216
9378630165
9378637367
9378644203
9378651405
9378658546
9378665565
9378671913
9378679359
9378685219
9378693458
9378700660
9378707374
9378714454
9378720863
9378728431
9378734474
9378740760
9378745094
9378751136
9378756996
9378762672
9378768836
9378775672
9378782203
9378787635
9378792457
9378798438
9378805213
9378810768
9378816200
9378824256
9378829444
9378835914
9378841529
9378846656
9378851417
9378858558
9378865577
9378871803
9378875159
9378882362
9378887855
9378893531
9378899940
9378906348
9378913489
9378918372
9378925818
9378930335
9378936988
9378941443
9378946876
9378953467
9378960975
9378966224
9378973670
9378976844
9378983802
9378990210
9378995643
9379003211
9379007666
9379013404
9379018775
9379025367
9379030371
9379036170
9379040808
9379047461
9379053138
9379058509
9379063697
9379069739
9379075049
9379080359
9379086402
9379092017
9379098059
9379101966
9379108252
9379114661
9379121069
9379127417
9379135413
9379138831
9379146826
9379152686
9379160559
9379168494
9379175513
9379182471
9379190039
9379199622
9379207373
9379213965
9379220190
9379226965
9379234289
9379240332
9379245886
9379251440
9379255530
9379261572
9379267676
9379274145
9379279699
9379285132
9379290686
9379297094
9379301245
9379308813
9379314489
9379324621
9379330175
9379336523
9379341528
9379347753
9379352697
9379360144
9379366064
9379373754
9379381140
9379387731
9379394934
9379402197
9379408666
9379415869
9379422155
9379427709
9379434911
9379440038
9379447302
9379452490
9379459631
9379466283
9379472753
9379479467
9379486303
9379492406
9379499181
9379507116
9379512731
9379518957
9379525487
9379532689
9379540136
9379546911
9379554174
9379561132
9379570409
9379576879
9379582799
9379590490
9379596471
9379602758
9379608983
9379615453
9379621740
9379627782
9379633886
9379640050
9379646154
9379652745
9379657628
9379666112
9379672887
9379678502
9379683019
9379690770
9379695958
9379701573
9379708531
9379715123
9379721654
9379730504
9379737218
9379744054
9379748204
9379756139
9379763097
9379769200
9379775487
9379781651
9379785252
9379793370
9379799473
9379805638
9379812535
9379818577
9379824315
9379830357
9379835728
9379841771
9379848240
9379852879
9379859471
9379866063
9379874485
9379879124
9379885350
9379891453
9379897679
9379904515
9379911351
9379916783
9379922947
9379927952
9379936070
9379941319
9379947056
9379952061
9379959019
9379964329
9379970738
9379975559
9379982395
9379988438
9379994541
9380001682
9380007603
9380012791
9380018589
9380024448
9380030186
9380035679
9380041782
9380049046
9380053562
9380059483
9380065647
9380070957
9380077061
9380082127
9380086704
9380094700
9380100132
9380106785
9380111790
9380118809
9380123691
9380130100
9380135593
9380143528
9380150669
9380155552
9380161045
9380168918
9380173557
9380179111
9380186313
9380192600
9380197300
9380202976
9380208286
9380212741
9380219272
9380224460
9380231845
9380235630
9380244236
9380250949
9380257053
9380263217
9380268283
9380275424
9380278781
9380286289
9380291660
9380297214
9380304538
9380310459
9380317050
9380323581
9380328220
9380334323
9380339389
9380343723
9380349826
9380354526
9380362521
9380367953
9380373202
9380377902
9380386996
9380394260
9380398837
9380406467
9380411655
9380419223
9380426242
9380432101
9380437778
9380445407
9380451693
9380456576
9380464206
9380470187
9380476474
9380483859
9380489047
9380496920
9380503024
9380509494
9380515902
9380522189
9380527621
9380534152
9380541354
9380547885
9380558139
9380562106
9380570956
9380577914
9380584445
9380591158
9380598239
9380605013
9380610507
9380618563
9380624056
9380631747
9380639010
9380645480
9380652193
9380658663
9380665377
9380671969
9380675997
9380684969
9380689669
9380697115
9380703524
9380710909
9380722079
9380734225
9380740328
9380746004
9380754915
9380761324
9380765841
9380771395
9380779757
9380785189
9380791414
9380799166
9380806307
9380812716
9380818270
9380825838
9380832003
9380841158
9380847261
9380853853
9380861666
9380866670
9380874910
9380880831
9380887361
9380895845
9380903230
9380911653
9380918977
9380926607
9380932222
9380938509
9380946321
9380952608
9380959444
9380965974
9380971651
9380978181
9380985567
9380991853
9380998567
9381003511
9381011812
9381016756
9381024507
9381029451
9381037141
9381044038
9381049836
9381055330
9381064058
9381071138
9381077607
9381086824
9381093660
9381099519
9381104951
9381111909
9381117097
9381124787
9381131440
9381139924
9381147187
9381154267
9381161286
9381167939
9381174043
9381180207
9381186982
9381191804
9381199067
9381205598
9381210908
9381217317
9381223542
9381228730
9381236359
9381243012
9381248750
9381254853
9381260712
9381266145
9381272553
9381278840
9381285371
9381291901
9381296967
9381303315
9381308320
9381315461
9381326691
9381332673
9381340729
9381346222
9381353486
9381360077
9381367096
9381373505
9381379303
9381385224
9381390534
9381395600
9381400849
9381406891
9381411225
9381418854
9381424713
9381430390
9381434845
9381440522
9381445038
9381451630
9381459015
9381464569
9381469879
9381475189
9381480499
9381487396
9381494538
9381503632
9381508515
9381516327
9381522492
9381531342
9381538788
9381543427
9381550079
9381554718
9381561249
9381565521
9381571869
9381576813
9381582489
9381590301
9381595672
9381601105
9381607208
9381612091
9381618133
9381623321
9381630096
9381635834
9381640899
9381647552
9381652191
9381658905
9381664581
9381670074
9381676910
9381682769
9381688385
9381693817
9381699615
9381703704
9381711029
9381716156
9381722686
9381727569
9381735260
9381740509
9381746551
9381750152
9381757842
9381765472
9381771820
9381778350
9381783294
9381790557
9381794952
9381801605
9381808685
9381815460
9381820159
9381826934
9381833404
9381838775
9381845367
9381850921
9381856353
9381863494
9381869109
9381876189
9381881683
9381891692
9381898467
9381905547
9381915252
9381920501
9381929229
9381933318
9381943389
9381948821
9381957427
9381963530
9381969878
9381975554
9381982024
9381988738
9381995452
9382002654
9382010039
9382016082
9382023162
9382029265
9382035002
9382042571
9382047881
9382056060
9382062956
9382069426
9382076262
9382085234
9382093718
9382099822
9382106474
9382112090
9382120024
9382126433
9382132903
9382139922
9382146513
9382153410
9382160246
9382167021
9382173308
9382181486
9382187285
9382194792
9382200224
9382207976
9382214995
9382219694
9382227751
9382234282
9382240446
9382247160
9382254118
9382259245
9382267485
9382272245
9382279387
9382286406
9382292753
9382297758
9382305998
9382311674
9382319731
9382325834
9382333403
9382339323
9382346769
9382352262
9382361173
9382367765
9382375944
9382381864
9382388334
9382394193
9382401457
9382407072
9382412931
9382420316
9382427457
9382430998
9382439481
9382446073
9382451810
9382457914
9382462980
9382470914
9382475858
9382482938
9382488187
9382495145
9382501310
9382507352
9382514371
9382525480
9382532621
9382538846
9382545255
9382552152
9382558378
9382565580
9382571744
9382576932
9382583097
9382589444
9382596219
9382602506
9382607633
9382615567
9382622281
9382627469
9382633817
9382639554
9382644254
9382651822
9382657926
9382663419
9382666715
9382674222
9382680570
9382686429
9382693021
9382699735
9382708341
9382711697
9382720120
9382726163
9382731900
9382737820
9382743619
9382749905
9382756131
9382764676
9382769192
9382775967
9382781644
9382787320
9382794400
9382801419
9382806607
9382812344
9382818570
9382824856
9382830899
9382838772
9382844449
9382850735
9382856778
9382862881
9382868924
9382875454
9382880093
9382887539
9382892727
9382899929
9382905728
9382911404
9382917569
9382923550
9382931485
9382937649
9382943814
9382948818
9382955166
9382960964
9382966763
9382973110
9382979336
9382986965
9382993923
9382999722
9383005093
9383011746
9383017544
9383026272
9383030300
9383037746
9383043972
9383050137
9383056850
9383064358
9383072109
9383077358
9383084255
9383091762
9383098965
9383103176
9383112575
9383116726
9383127041
9383134609
9383141201
9383148037
9383153164
9383161342
9383166469
9383174404
9383179287
9383187221
9383192287
9383200222
9383205776
9383212184
9383219570
9383225917
9383231105
9383238368
9383244228
9383251979
9383258876
9383265529
9383273708
9383280544
9383291408
9383298610
9383305385
9383312038
9383318446
9383324672
9383331142
9383337917
9383342311
9383349452
9383353908
9383360744
9383365565
9383374232
9383379115
9383386500
9383391078
9383397609
9383403956
9383409328
9383415980
9383423366
9383428615
9383434962
9383439906
9383446620
9383451625
9383458339
9383464320
9383471705
9383478419
9383485194
9383489222
9383498011
9383507045
9383512477
9383521327
9383526698
9383532923
9383540553
9383547022
9383552577
9383560816
9383566493
9383573390
9383578761
9383586817
9383590724
9383599452
9383605677
9383612940
9383619044
9383627528
9383633509
9383641322
9383647364
9383654749
9383660364
9383666224
9383672999
9383679713
9383684901
9383691798
9383696985
9383703943
9383709803
9383714930
9383721338
9383729273
9383741053
9383746363
9383754480
9383758570
9383766321
9383774317
9383780603
9383787867
9383794397
9383801233
9383805811
9383813074
9383817896
9383825586
9383832483
9383837366
9383844385
9383850244
9383857019
9383863245
9383868433
9383875574
9383880701
9383887537
9383892725
9383899500
9383904260
9383911890
9383919397
9383925745
9383932397
9383939050
9383944849
9383949121
9383955530
9383962427
9383967737
9383974023
9383979394
9383985071
9383989160
9383996118
9384000390
9384007287
9384012292
9384018518
9384023157
9384029443
9384033899
9384039819
9384046655
9384052514
9384058374
9384062829
9384069909
9384073999
9384080774
9384085595
9384091699
9384096521
9384102441
9384107446
9384113732
9384118432
9384126306
9384132775
9384139184
9384145165
9384150842
9384156518
9384162072
9384167871
9384174279
9384181298
9384186364
9384191857
9384196435
9384203149
9384207665
9384214990
9384221520
9384227807
9384234582
9384240502
9384245446
9384251366
9384257104
9384263390
9384269372
9384276025
9384283410
9384288964
9384297387
9384302880
9384309350
9384316613
9384325097
9384331749
9384337975
9384344079
9384350060
9384355431
9384362084
9384368859
9384375390
9384381615
9384387719
9384393883
9384399865
9384405175
9384411400
9384419030
9384425804
9384430870
9384437523
9384443382
9384449974
9384455162
9384462547
9384469078
9384474938
9384482994
9384495323
9384500450
9384508446
9384514122
9384521935
9384529381
9384535667
9384542686
9384547386
9384554771
9384562706
9384569359
9384575340
9384582420
9384589561
9384595970
9384601951
9384609031
9384617759
9384622642
9384630882
9384637230
9384642112
9384650963
9384657005
9384664024
9384670066
9384676658
9384683372
9384690513
9384696495
9384704246
9384709007
9384717369
9384723472
9384730064
9384737876
9384743614
9384751853
9384755821
9384766014
9384772056
9384779563
9384786277
9384793174
9384801841
9384809592
9384815330
9384822776
9384830100
9384837913
9384844138
9384852988
9384860679
9384867942
9384875571
9384883079
9384889609
9384895774
9384903708
9384912253
9384919517
9384925498
9384932456
9384938620
9384945334
9384952597
9384957847
9384963645
9384970908
9384975364
9384980552
9384987265
9384995871
9385002097
9385008017
9385013877
9385019370
9385025229
9385028525
9385037558
9385044272
9385048850
9385055808
9385060202
9385067221
9385071677
9385079733
9385085104
9385093283
9385097556
9385105490
9385110495
9385116476
9385121603
9385126791
9385133688
9385139243
9385143576
9385148947
9385154806
9385160116
9385165610
9385171713
9385178183
9385182883
9385188986
9385193442
9385199789
9385202963
9385209555
9385217489
9385223105
9385228598
9385234274
9385241903
9385246908
9385253256
9385260519
9385265707
9385272116
9385278219
9385282675
9385288473
9385293905
9385301840
9385307455
9385313070
9385318624
9385324911
9385330465
9385335226
9385340963
9385347067
9385353414
9385359030
9385364950
9385370809
9385375021
9385381002
9385388265
9385395712
9385399557
9385406271
9385410970
9385417684
9385422323
9385430013
9385436361
9385442770
9385449117
9385455160
9385460470
9385468038
9385475301
9385480367
9385489889
9385495382
9385502828
9385509603
9385515645
9385520650
9385526326
9385533223
9385539632
9385544942
9385552144
9385557332
9385564473
9385569478
9385575765
9385581380
9385591878
9385599691
9385604268
9385612691
9385618367
9385626607
9385634786
9385640889
9385648030
9385655721
9385664510
9385670918
9385680318
9385686238
9385693807
9385697652
9385706075
9385711446
9385719075
9385723225
9385732075
9385739461
9385745808
9385752339
9385759114
9385765706
9385772725
9385778706
9385785908
9385792073
9385799031
9385805501
9385811055
9385817891
9385824971
9385831318
9385836689
9385844197
9385849507
9385857075
9385864399
9385870869
9385876240
9385884663
9385891621
9385898152
9385904743
9385909748
9385917622
9385922566
9385929341
9385935871
9385943745
9385948689
9385956867
9385961872
9385969013
9385974018
9385982441
9385987385
9385994770
9386001789
9386006977
9386014057
9386021076
9386027180
9386034992
9386041157
9386047871
9386055561
9386062214
9386067646
9386075764
9386081257
9386090107
9386095539
9386107013
9386111408
9386123676
9386129047
9386138569
9386142475
9386151935
9386158832
9386165241
9386171283
9386177936
9386184650
9386190815
9386197040
9386203998
9386209674
9386216449
9386223041
9386229877
9386236103
9386241168
9386248248
9386253925
9386261493
9386267047
9386273578
9386281452
9386286090
9386294452
9386300006
9386310016
9386316669
9386323627
9386330646
9386336749
9386342731
9386349017
9386355487
9386361285
9386367877
9386372211
9386378497
9386384906
9386390216
9386396502
9386402179
9386408465
9386414630
9386418963
9386425433
9386428546
9386435809
9386442584
9386448138
9386453082
9386458331
9386463824
9386469012
9386474871
9386479205
9386486529
9386491168
9386497149
9386501605
9386508441
9386512835
9386518145
9386525836
9386531573
9386537310
9386543231
9386550677
9386556597
9386562457
9386569659
9386574664
9386580828
9386585772
9386592852
9386599810
9386605853
9386612139
9386618487
9386625018
9386629717
9386636065
9386641131
9386649004
9386654375
9386659991
9386667193
9386671404
9386677508
9386684405
9386690691
9386698443
9386706621
9386713762
9386720232
9386726091
9386732439
9386738970
9386746294
9386752825
9386757586
9386765093
9386772173
9386778704
9386784136
9386790239
9386797686
9386805010
9386810503
9386816973
9386822405
9386830278
9386836809
9386843401
9386850847
9386857317
9386864092
9386871111
9386879106
9386885942
9386891435
9386898576
9386906267
9386911211
9386918779
9386925798
9386932085
9386936845
9386943681
9386951433
9386957353
9386964250
9386969804
9386976823
9386983598
9386989030
9386995195
9387002702
9387009355
9387017595
9387024614
9387029985
9387036210
9387043535
9387050615
9387056169
9387062883
9387068376
9387076310
9387081865
9387089555
9387095048
9387102738
9387109941
9387116593
9387123551
9387129960
9387136979
9387143449
9387149674
9387156144
9387161515
9387167863
9387174516
9387181901
9387188249
9387194840
9387201981
9387210099
9387216325
9387221146
9387228776
9387246171
9387252824
9387257706
9387266434
9387271805
9387277543
9387283951
9387289567
9387294571
9387301713
9387308121
9387315934
9387323685
9387331559
9387338517
9387345719
9387354752
9387359818
9387367264
9387375016
9387381180
9387386490
9387393875
9387397538
9387405899
9387412186
9387418411
9387425003
9387429886
9387435074
9387442398
9387449173
9387455460
9387462540
9387468704
9387473038
9387480362
9387487076
9387493424
9387498856
9387505692
9387513321
9387521194
9387528213
9387533951
9387540298
9387547134
9387552750
9387559830
9387565689
9387570877
9387578567
9387583877
9387590042
9387595230
9387602554
9387610794
9387616287
9387622085
9387627884
9387633438
9387639175
9387644973
9387650772
9387658340
9387665237
9387670852
9387676467
9387682144
9387688125
9387693740
9387700149
9387705825
9387711318
9387717117
9387723953
9387728347
9387735305
9387741714
9387747207
9387751907
9387758376
9387763076
9387769729
9387776565
9387782119
9387789993
9387794692
9387804031
9387809829
9387815993
9387823135
9387827956
9387835525
9387841689
9387847976
9387854140
9387860427
9387866836
9387873672
9387882033
9387889297
9387895034
9387901870
9387909499
9387916335
9387922988
9387930739
9387937331
9387943435
9387950454
9387954848
9387962416
9387967177
9387974257
9387980605
9387990309
9387994033
9388002516
9388009291
9388015761
9388019545
9388027907
9388031630
9388040602
9388047438
9388054030
9388057875
9388066298
9388073622
9388079909
9388086623
9388094069
9388102248
9388107985
9388115797
9388123976
9388130568
9388135939
9388142531
9388149672
9388155287
9388162367
9388168165
9388176161
9388184096
9388191054
9388200514
9388208754
9388218092
9388226027
9388233351
9388240065
9388245924
9388252150
9388258986
9388265394
9388271376
9388278334
9388284315
9388291151
9388297254
9388303846
9388309889
9388317579
9388323988
9388330519
9388337660
9388344251
9388348463
9388356214
9388361707
9388370008
9388373792
9388381910
9388388319
9388397230
9388401014
9388409498
9388416029
9388422437
9388426954
9388433912
9388441236
9388447645
9388454481
9388460889
9388466321
9388472852
9388480115
9388486646
9388493238
9388499585
9388506360
9388514905
9388524732
9388531263
9388540479
9388548047
9388554578
9388563855
9388569471
9388577771
9388585584
9388592054
9388599683
9388605786
9388612805
9388619031
9388624097
9388632031
9388637525
9388645276
9388650769
9388659009
9388665051
9388670850
9388675977
9388683301
9388689404
9388695020
9388700635
9388709180
9388713086
9388721570
9388727429
9388733777
9388737683
9388746533
9388756665
9388764355
9388769604
9388776196
9388782361
9388788647
9388794873
9388801526
9388807751
9388813794
9388819958
9388826245
9388832470
9388837658
9388844189
9388850781
9388857006
9388863232
9388869458
9388875317
9388881665
9388887768
9388894116
9388899731
9388906018
9388911816
9388916027
9388923107
9388927807
9388934948
9388939709
9388946850
9388950451
9388960095
9388966076
9388972851
9388979015
9388987988
9388994701
9388999401
9389006847
9389012646
9389018322
9389021618
9389030163
9389035534
9389040966
9389047619
9389053539
9389059826
9389064159
9389071483
9389077953
9389084423
9389089855
9389095897
9389102184
9389107860
9389113414
9389119457
9389126415
9389131725
9389138317
9389143200
9389149974
9389157421
9389163829
9389171154
9389178966
9389187267
9389193553
9389199657
9389206066
9389212413
9389218273
9389224193
9389230968
9389235607
9389243236
9389247936
9389255809
9389260875
9389268016
9389273082
9389280772
9389287425
9389294139
9389298045
9389305553
9389311229
9389319957
9389323924
9389332774
9389337230
9389346934
9389351329
9389360240
9389367930
9389374400
9389380931
9389385814
9389392405
9389398753
9389404918
9389411570
9389418773
9389425364
9389432078
9389437144
9389444346
9389450877
9389456919
9389463572
9389471080
9389477244
9389483653
9389490733
9389496897
9389503855
9389509532
9389516612
9389522715
9389529612
9389535899
9389542185
9389549998
9389557383
9389563914
9389570017
9389577708
9389583079
9389590708
9389596751
9389603159
9389607066
9389615427
9389622141
9389628428
9389635203
9389641917
9389648630
9389653574
9389661387
9389668223
9389674631
9389681040
9389688059
9389694529
9389700022
9389706492
9389713205
9389722239
9389728098
9389735239
9389741526
9389748667
9389754709
9389759653
9389767466
9389774118
9389781565
9389787058
9389794992
9389803171
9389810312
9389816416
9389824716
9389830881
9389838999
9389844309
9389850229
9389855722
9389863718
9389869333
9389876840
9389882394
9389890451
9389894418
9389902902
9389908456
9389916208
9389920236
9389929086
9389933603
9389941354
9389946664
9389954355
9389960397
9389965890
9389970956
9389978097
9389989999
9389995065
9390003976
9390011239
9390017587
9390024179
9390028939
9390035897
9390042001
9390049081
9390055795
9390061166
9390067819
9390073800
9390078988
9390086557
9390091622
9390097726
9390102914
9390110055
9390115243
9390122384
9390127694
9390133798
9390140572
9390146920
9390152169
9390159737
9390164925
9390171456
9390178170
9390183846
9390187020
9390194711
9390201302
9390207101
9390213143
9390217721
9390225167
9390231271
9390236520
9390241463
9390247872
9390255074
9390260995
9390267830
9390273934
9390280037
9390284676
9390290902
9390297249
9390303048
9390308602
9390314766
9390320931
9390325814
9390332772
9390339608
9390345406
9390352608
9390356697
9390363045
9390368843
9390373726
9390382088
9390390511
9390398079
9390405709
9390412972
9390419563
9390426155
9390432320
9390437691
9390444710
9390450691
9390457283
9390463997
9390468636
9390475044
9390480171
9390488411
9390492683
9390500008
9390505806
9390511726
9390518867
9390524605
9390535835
9390544014
9390551399
9390559700
9390567024
9390572395
9390579658
9390587471
9390594185
9390600166
9390607429
9390614143
9390619514
9390626472
9390632026
9390638984
9390644477
9390651985
9390657417
9390665351
9390670661
9390677070
9390687202
9390693244
9390700874
9390707771
9390713508
9390718391
9390726386
