15512959188
15512966146
15512971578
15512977315
15512983724
15512988790
15512993184
15512999471
15513005757
15513012288
15513019185
15513025777
15513032491
15513037862
15513045674
15513052937
15513060506
15513065694
15513071675
15513079610
15513086629
15513093220
15513099324
15513105733
15513113484
15513119282
15513127766
15513134236
15513140767
15513147114
15513152485
15513160481
15513168049
15513174519
15513184102
15513189106
15513198079
15513205098
15513213337
15513220295
15513228474
15513234455
15513242573
15513251667
15513260762
15513268818
15513275959
15513283161
15513290669
15513297138
15513302693
15513308308
15513314839
15513321797
15513327290
15513334004
15513339985
15513346577
15513351521
15513357929
15513363728
15513371174
15513376850
15513380207
15513387043
15513392414
15513398273
15513402058
15513411274
15513413166
15513422504
15513428425
15513435077
15513440754
15513447529
15513453449
15513459003
15513466938
15513474567
15513482135
15513488910
15513495868
15513502033
15513508503
15513515888
15513522602
15513528766
15513534442
15513541584
15513548297
15513555866
15513563678
15513570087
15513576557
15513582965
15513589923
15513595355
15513603656
15513609699
15513615802
15513621478
15513629291
15513635577
15513644367
15513651996
15513658649
15513665424
15513672321
15513679462
15513686603
15513695148
15513702594
15513709308
15513715228
15513721881
15513729816
15513735431
15513743670
15513749042
15513756427
15513762896
15513770648
15513776385
15513783038
15513789813
15513796954
15513804400
15513812152
15513819232
15513827777
15513832232
15513841082
15513847003
15513855731
15513863726
15513870745
15513877764
15513885028
15513892108
15513900408
15513907061
15513912554
15513920306
15513926104
15513933489
15513940997
15513948626
15513956072
15513961138
15513969134
15513974932
15513982989
15513986956
15513996722
15514002581
15514009173
15514015764
15514023028
15514030108
15514035967
15514043352
15514052080
15514058489
15514066179
15514071306
15514080156
15514085772
15514092363
15514100359
15514107866
15514113970
15514121111
15514126543
15514134294
15514140154
15514148271
15514154863
15514162310
15514166521
15514175310
15514181169
15514189714
15514194109
15514203752
15514210588
15514217973
15514225053
15514231889
15514238847
15514245744
15514252946
15514258562
15514266740
15514274309
15514283037
15514289445
15514296709
15514305925
15514310747
15514321306
15514326127
15514335222
15514341630
15514350664
15514357927
15514363786
15514370073
15514378923
15514385820
15514395402
15514401811
15514409196
15514416398
15514425004
15514431535
15514439469
15514445390
15514450273
15514456010
15514460099
15514466142
15514472001
15514476579
15514483048
15514487626
15514494584
15514500688
15514505448
15514510697
15514515824
15514521134
15514527543
15514532060
15514538651
15514546525
15514553788
15514559647
15514565446
15514570328
15514575944
15514581925
15514586503
15514590470
15514595902
15514600846
15514607011
15514611344
15514616105
15514620072
15514627213
15514630082
15514637528
15514642350
15514646988
15514650467
15514656266
15514661088
15514666214
15514669388
15514676896
15514680558
15514688553
15514694718
15514698929
15514703934
15514711075
15514716507
15514721756
15514727188
15514733719
15514738663
15514745194
15514750016
15514755081
15514761307
15514766251
15514771012
15514777237
15514782974
15514788834
15514794754
15514800369
15514806961
15514812821
15514818558
15514825272
15514830032
15514833267
15514841324
15514845840
15514852737
15514858719
15514864395
15514867996
15514876175
15514880814
15514890152
15514898453
15514903030
15514911026
15514918716
15514923538
15514933792
15514941971
15514946792
15514952163
15514958389
15514963699
15514969131
15514974563
15514979690
15514985977
15514990982
15514996719
15515001541
15515006363
15515011245
15515015762
15515020950
15515025711
15515032180
15515036758
15515042129
15515046890
15515052139
15515056106
15515064407
15515070144
15515076003
15515082839
15515087783
15515094131
15515100601
15515107559
15515111709
15515116714
15515124221
15515129104
15515136062
15515140945
15515147659
15515152053
15515157973
15515162368
15515168838
15515172561
15515179092
15515183730
15515189468
15515194350
15515200149
15515206191
15515211257
15515216689
15515223342
15515228286
15515233474
15515239455
15515244338
15515248366
15515254104
15515260024
15515264724
15515269240
15515275893
15515281569
15515286818
15515292617
15515297499
15515303420
15515310927
15515315810
15515321975
15515327712
15515332045
15515338759
15515344924
15515349318
15515354933
15515360793
15515366835
15515371840
15515376601
15515382948
15515387892
15515394423
15515400404
15515406630
15515411086
15515416823
15515422621
15515428114
15515432448
15515439223
15515444228
15515451491
15515457472
15515462172
15515472548
15515481947
15515490553
15515498610
15515508192
15515518751
15515525770
15515534132
15515541395
15515550429
15515561110
15515568922
15515575697
15515582411
15515589247
15515596693
15515604567
15515611769
15515620375
15515632276
15515639845
15515649366
15515658277
15515669386
15515679579
15515688856
15515699781
15515708814
15515717970
15515727491
15515736585
15515743238
15515753858
15515764600
15515776197
15515785230
15515794385
15515803541
15515813489
15515822584
15515833814
15515843519
15515852735
15515861402
15515870435
15515879529
15515889356
15515897351
15515907788
15515916028
15515927503
15515935376
15515943616
15515955640
15515962049
15515976575
15515983838
15515993298
15516002942
15516012463
15516021619
15516031445
15516041333
15516051404
15516062329
15516070264
15516079846
15516088025
15516100110
15516109875
15516119336
15516130383
15516137158
15516148572
15516156140
15516167675
15516176037
15516185742
15516195813
15516204724
15516214489
15516224072
15516233776
15516244091
15516255017
15516266735
15516276074
15516287670
15516297680
15516305676
15516316052
15516331982
15516343090
15516354565
15516362682
15516373363
15516381115
15516393078
15516403026
15516412365
15516421337
15516431652
15516443615
15516452587
15516463024
15516472362
15516481395
15516491954
15516501293
15516512035
15516521923
15516530651
15516540355
15516550548
15516559642
15516570323
15516580333
15516589488
15516603526
15516613048
15516625499
15516634471
15516644725
15516654979
15516663524
15516677989
15516697093
15516708568
15516718760
15516726817
15516738231
15516748423
15516757701
15516767222
15516777842
15516787242
15516798228
15516808787
15516819590
15516827525
15516839427
15516849681
15516859385
15516873118
15516885264
15516896372
15516906626
15516918467
15516929392
15516943552
15516956126
15516968516
15516980845
15516988413
15516999583
15517011973
15517021738
15517030649
15517041025
15517050058
15517057322
15517062082
15517070322
15517076731
15517082895
15517090036
15517095346
15517100412
15517108469
15517115061
15517121103
15517127390
15517134043
15517139719
15517146128
15517152231
15517158457
15517165781
15517172983
15517179880
15517187204
15517193491
15517199838
15517204965
15517213022
15517218088
15517224924
15517232431
15517237863
15517242441
15517245737
15517253244
15517258066
15517262949
15517267099
15517272043
15517277170
15517282053
15517286325
15517290536
15517295785
15517300790
15517306039
15517310007
15517314950
15517319650
15517326303
15517329782
15517338998
15517346383
15517354745
15517360544
15517366220
15517372079
15517377267
15517383371
15517388253
15517394235
15517398141
15517403024
15517408822
15517413705
15517418222
15517423043
15517427804
15517432321
15517438058
15517444100
15517448861
15517453134
15517458261
15517461984
15517466683
15517470834
15517476571
15517481393
15517486581
15517490914
15517496652
15517500802
15517507150
15517511788
15517517709
15517524178
15517529122
15517533761
15517540841
15517546090
15517551583
15517554574
15517561654
15517564950
15517572274
15517575143
15517582528
15517588509
15517594369
15517599373
15517604378
15517609871
15517615304
15517620125
15517625435
15517632271
15517637887
15517642525
15517646615
15517652047
15517657296
15517661995
15517667305
15517672188
15517676278
15517681527
15517687508
15517694710
15517698799
15517704048
15517708626
15517714730
15517718941
15517724068
15517729012
15517733773
15517737923
15517743111
15517748360
15517753243
15517757820
15517763985
15517769539
15517775582
15517781136
15517786873
15517791329
15517797737
15517802559
15517807686
15517814095
15517820869
15517827156
15517831612
15517838264
15517844551
15517848946
15517855049
15517861458
15517867561
15517874153
15517877632
15517884956
15517890877
15517896980
15517903206
15517910286
15517916450
15517923103
15517928047
15517934334
15517938850
15517943977
15517948799
15517955513
15517961128
15517967964
15517973518
15517978889
15517983955
15517989631
15517994697
15518000984
15518006904
15518011787
15518016792
15518023139
15518027595
15518033637
15518038276
15518043159
15518047798
15518055244
15518060066
15518065437
15518070381
15518076789
15518081367
15518087531
15518093208
15518103156
15518109626
15518114265
15518118232
15518125434
15518129523
15518134956
15518139167
15518145759
15518151740
15518157478
15518161994
15518167609
15518174018
15518175849
15518184516
15518191474
15518197333
15518202582
15518207038
15518210456
15518218574
15518222053
15518231391
15518233832
15518243720
15518247016
15518256659
15518261054
15518268195
15518272528
15518279914
15518286322
15518292548
15518294440
15518303595
15518306769
15518314704
15518322882
15518328559
15518337653
15518347357
15518352667
15518362006
15518368781
15518376349
15518384528
15518390387
15518400153
15518408392
15518416632
15518422553
15518431464
15518437323
15518445624
15518453925
15518462653
15518471442
15518479498
15518486578
15518497198
15518501715
15518512457
15518522467
15518530645
15518541144
15518547735
15518557745
15518562445
15518572027
15518581610
15518586676
15518595587
15518602972
15518610723
15518617315
15518626593
15518634771
15518642279
15518650335
15518658880
15518665838
15518672491
15518681890
15518689459
15518695989
15518702886
15518709417
15518715276
15518721746
15518728948
15518737554
15518744878
15518753667
15518759405
15518767522
15518774297
15518778203
15518786565
15518794988
15518801946
15518809209
15518816289
15518823064
15518828252
15518836187
15518845464
15518852910
15518859746
15518868535
15518874395
15518881780
15518887578
15518896794
15518901494
15518911748
15518917363
15518928838
15518937444
15518946477
15518956120
15518961980
15518974065
15518980962
15518988591
15518996648
15519002446
15519007024
15519018010
15519026860
15519033574
15519041692
15519050420
15519059758
15519066411
15519076115
15519082707
15519091801
15519097600
15519106206
15519112248
15519118901
15519127507
15519134526
15519143254
15519153202
15519157780
15519166447
15519174076
15519181950
15519190068
15519196354
15519205998
15519212101
15519222294
15519229923
15519243412
15519250797
15519262028
15519272831
15519276920
15519286747
15519295353
15519303410
15519311955
15519319279
15519326359
15519333317
15519340092
15519347233
15519353153
15519362614
15519368839
15519376469
15519382633
15519391178
15519399235
15519406559
15519413822
15519423588
15519433109
15519439518
15519447635
15519456607
15519464054
15519471683
15519480045
15519487247
15519492862
15519501834
15519508548
15519514286
15519520145
15519528690
15519537723
15519546390
15519553348
15519561832
15519570194
15519579349
15519586917
15519594241
15519602664
15519607608
15519613590
15519617862
15519623172
15519628055
15519634097
15519639041
15519646609
15519653751
15519659244
15519665286
15519671390
15519676761
15519681705
15519687686
15519692447
15519696902
15519702517
15519707339
15519712283
15519717166
15519723819
15519729312
15519734378
15519738650
15519743716
15519748477
15519752871
15519759158
15519765139
15519770022
15519774234
15519780154
15519786929
15519791507
15519797732
15519803530
15519808169
15519813784
15519817935
15519824465
15519828372
15519838992
15519846438
15519854189
15519862612
15519867617
15519872805
15519876956
15519882998
15519887637
15519895388
15519900393
15519910952
15519921389
15519926760
15519933535
15519939944
15519945620
15519951968
15519956606
15519963503
15519968203
15519976809
15519982424
15519987124
15519992800
15519998720
15520003603
15520009890
15520016176
15520021364
15520026369
15520030886
15520036989
15520042543
15520046877
15520054506
15520059999
15520063356
15520071535
15520074831
15520081179
15520088686
15520093813
15520102724
15520107485
15520113100
15520119020
15520123598
15520127748
15520133608
15520138307
15520144777
15520151247
15520156069
15520162233
15520167848
15520173036
15520178407
15520185060
15520192751
15520196840
15520204286
15520208070
15520216310
15520219728
15520227663
15520233766
15520238710
15520243532
15520249147
15520253786
15520258913
15520264039
15520270631
15520276369
15520282533
15520287965
15520293703
15520299196
15520305421
15520310426
15520315614
15520321229
15520327821
15520338563
15520345643
15520351564
15520360841
15520366700
15520374513
15520378480
15520385499
15520391481
15520396669
15520403749
15520411622
15520417115
15520422425
15520428468
15520438600
15520444825
15520450746
15520457520
15520463075
15520467713
15520473390
15520479859
15520485291
15520490723
15520495423
15520500123
15520503419
15520509827
15520516541
15520520936
15520526185
15520531617
15520537293
15520540894
15520545167
15520550843
15520555421
15520561097
15520565919
15520570252
15520576234
15520581849
15520586487
15520590760
15520596070
15520600037
15520605774
15520610779
15520617066
15520621888
15520627869
15520632630
15520638123
15520643189
15520650574
15520655213
15520660279
15520664734
15520669861
15520674561
15520682373
15520690125
15520697632
15520707276
15520715454
15520722718
15520731995
15520738709
15520748657
15520756104
15520764588
15520771240
15520780762
15520788452
15520800720
15520809570
15520820435
15520828003
15520836243
15520844543
15520851746
15520860107
15520865234
15520874389
15520880249
15520890564
15520896118
15520905761
15520912842
15520920288
15520927551
15520937256
15520944885
15520953186
15520960083
15520967590
15520974792
15520982421
15520988952
15520999389
15521007141
15521015991
15521022399
15521027404
15521037292
15521042541
15521054077
15521059265
15521069274
15521076049
15521086608
15521092407
15521101806
15521109618
15521118224
15521125304
15521133544
15521140319
15521151305
15521157958
15521167296
15521174743
15521182860
15521191283
15521198180
15521207091
15521214721
15521223754
15521232543
15521239318
15521244384
15521254943
15521260436
15521270629
15521278929
15521285704
15521292723
15521301329
15521309325
15521318114
15521325316
15521334654
15521342284
15521351317
15521359007
15521365965
15521375548
15521382323
15521388487
15521397337
15521405089
15521413512
15521422301
15521430907
15521437437
15521446959
15521454100
15521458983
15521469542
15521478087
15521485960
15521492979
15521501524
15521508665
15521518614
15521526243
15521534849
15521542906
15521549437
15521555784
15521565916
15521573606
15521582090
15521592161
15521599424
15521606199
15521615599
15521621946
15521630735
15521639768
15521648618
15521655821
15521661070
15521673155
15521683286
15521691648
15521697630
15521706052
15521714841
15521723692
15521728635
15521738828
15521746763
15521754636
15521764890
15521771787
15521781186
15521788083
15521795102
15521805173
15521813901
15521823179
15521830320
15521838498
15521845151
15521854551
15521861692
15521870237
15521879148
15521887448
15521894162
15521901731
15521910642
15521918149
15521927365
15521935056
15521944638
15521951352
15521961972
15521968869
15521979001
15521985776
15521995175
15522002072
15522011166
15522017758
15522025632
15522034970
15522042721
15522050473
15522057919
15522066586
15522077023
15522083554
15522093014
15522102414
15522109067
15522117306
15522126584
15522133297
15522142331
15522150692
15522157833
15522164425
15522171566
15522176632
15522182858
15522188168
15522192745
15522200070
15522205502
15522213681
15522221249
15522229977
15522236386
15522242306
15522252255
15522259213
15522264706
15522270748
15522275143
15522280697
15522286007
15522291073
15522296322
15522301632
15522307796
15522312313
15522317501
15522322567
15522328670
15522334408
15522341122
15522349850
15522357662
15522365780
15522371151
15522376888
15522382931
15522387386
15522393490
15522400264
15522405514
15522412533
15522417354
15522423397
15522427791
15522433284
15522438594
15522445858
15522449154
15522457210
15522460567
15522468746
15522474178
15522480892
15522484188
15522491756
15522494625
15522500911
15522504207
15522511714
15522515377
15522521297
15522526851
15522532894
15522535762
15522542171
15522548030
15522552547
15522555660
15522563777
15522568111
15522576961
15522582698
15522588313
15522593929
15522598811
15522604671
15522610713
15522615230
15522620113
15522624446
15522628291
15522634273
15522638484
15522643733
15522649654
15522655635
15522661311
15522666438
15522672847
15522677363
15522683528
15522688228
15522692927
15522701045
15522705562
15522712520
15522718623
15522724116
15522728572
15522734736
15522739253
15522744990
15522749018
15522754512
15522760371
15522765620
15522771052
15522776118
15522782099
15522787410
15522793574
15522798762
15522804499
15522809504
15522815547
15522820918
15522827509
15522834040
15522838313
15522844904
15522851252
15522855952
15522861811
15522866999
15522872065
15522876521
15522886225
15522890437
15522897273
15522900751
15522907954
15522914301
15522919916
15522926691
15522932978
15522937250
15522944880
15522950007
15522954829
15522961909
15522966730
15522971979
15522980890
15522986628
15522992304
15522998530
15523003046
15523008783
15523015070
15523019709
15523027826
15523032831
15523039850
15523044367
15523048517
15523056391
15523060968
15523067987
15523074152
15523080866
15523086237
15523092035
15523096186
15523102960
15523106439
15523114435
15523121088
15523125849
15523131403
15523136591
15523141718
15523149957
15523155695
15523163690
15523171076
15523177423
15523183893
15523189203
15523193842
15523199274
15523203851
15523210504
15523216547
15523223016
15523226800
15523233392
15523239191
15523244562
15523249017
15523255365
15523260736
15523267389
15523272272
15523278497
15523283441
15523288751
15523293390
15523298822
15523305353
15523313836
15523320184
15523327203
15523334466
15523344476
15523350946
15523358453
15523365045
15523373895
15523383233
15523391473
15523398248
15523405450
15523413445
15523420526
15523426690
15523432366
15523442559
15523448113
15523458672
15523465814
15523473626
15523480523
15523489434
15523497552
15523505791
15523512749
15523519707
15523526116
15523535821
15523542290
15523550103
15523558587
15523566338
15523574883
15523582207
15523588433
15523593560
15523605767
15523611077
15523620476
15523625969
15523635735
15523644219
15523653801
15523660942
15523667778
15523674309
15523684502
15523694145
15523700798
15523708672
15523717461
15523723747
15523731194
15523740349
15523748161
15523754814
15523763420
15523771843
15523774712
15523788139
15523794487
15523803520
15523808769
15523819694
15523828850
15523835564
15523845817
15523853020
15523861442
15523870354
15523873222
15523885856
15523893852
15523903679
15523910942
15523919548
15523926811
15523933586
15523939140
15523951713
15523957695
15523968803
15523973930
15523982109
15523989677
15523997673
15524006828
15524013664
15524021110
15524028617
15524038627
15524047233
15524054252
15524061210
15524069877
15524077323
15524083610
15524089591
15524101615
15524104545
15524116752
15524121818
15524131278
15524139518
15524146964
15524154288
15524161429
15524170890
15524179313
15524187003
15524194266
15524200370
15524209159
15524216971
15524224418
15524231070
15524236319
15524247794
15524252982
15524263297
15524272086
15524281424
15524287100
15524297843
15524304923
15524314383
15524321524
15524330435
15524338126
15524347586
15524355093
15524364310
15524371573
15524378470
15524387747
15524395132
15524401419
15524411063
15524420584
15524429312
15524435843
15524444510
15524452994
15524455862
15524468924
15524473990
15524485525
15524491751
15524501761
15524511160
15524517569
15524525198
15524534170
15524539053
15524549307
15524555593
15524565969
15524574514
15524581839
15524588430
15524596426
15524603384
15524610952
15524620352
15524628896
15524636282
15524642324
15524650259
15524658254
15524664846
15524673513
15524681875
15524689870
15524696523
15524704275
15524711294
15524718069
15524725149
15524730947
15524737966
15524745595
15524750661
15524754140
15524761770
15524766469
15524771901
15524775930
15524783437
15524789907
15524794607
15524800405
15524806020
15524812978
15524817006
15524823903
15524831105
15524836293
15524842580
15524847646
15524852285
15524857350
15524863210
15524868093
15524873159
15524881642
15524886708
15524892934
15524897817
15524903432
15524909841
15524915883
15524921254
15524928395
15524934255
15524939137
15524945668
15524951222
15524956532
15524962331
15524966969
15524975270
15524982167
15524986745
15524992665
15524998952
15525004140
15525010487
15525016652
15525021962
15525028187
15525033498
15525039235
15525044301
15525050770
15525054555
15525062123
15525067494
15525074086
15525080128
15525085072
15525092335
15525096791
15525103749
15525108815
15525114857
15525123036
15525129261
15525134266
15525141224
15525145558
15525151905
15525156422
15525165821
15525170826
15525177113
15525181690
15525187977
15525193043
15525196461
15525204518
15525213429
15525219654
15525225025
15525230641
15525236378
15525240955
15525247547
15525252430
15525258717
15525265308
15525271473
15525276966
15525283009
15525287708
15525294117
15525298695
15525308277
15525312427
15525319019
15525324757
15525331898
15525338123
15525344227
15525348499
15525355518
15525360462
15525365406
15525371326
15525376941
15525381946
15525388538
15525395191
15525401661
15525406482
15525411365
15525418018
15525423023
15525427051
15525432911
15525440723
15525446521
15525453785
15525459644
15525464038
15525470020
15525475696
15525481922
15525488758
15525496326
15525502979
15525504932
15525513904
15525518665
15525525806
15525529224
15525537769
15525543201
15525552112
15525555469
15525563464
15525567676
15525573779
15525579272
15525585742
15525591846
15525597156
15525602527
15525608813
15525614001
15525620532
15525625659
15525630908
15525638415
15525645068
15525650805
15525656055
15525660571
15525666858
15525671496
15525678760
15525683825
15525690783
15525697253
15525701831
15525708300
15525714221
15525719409
15525723803
15525733203
15525742236
15525748706
15525750598
15525759265
15525763110
15525771533
15525777148
15525781665
15525787341
15525794482
15525800097
15525805895
15525811267
15525817858
15525822741
15525828539
15525834887
15525843493
15525849108
15525854479
15525861620
15525866198
15525870715
15525877062
15525881396
15525889758
15525894457
15525898608
15525907336
15525915942
15525924914
15525931811
15525938036
15525947985
15525956469
15525964159
15525970141
15525978991
15525985582
15525993090
15526000353
15526007799
15526018053
15526025621
15526031603
15526038439
15526045946
15526053759
15526064073
15526072191
15526082201
15526087450
15526097704
15526102770
15526112779
15526119432
15526126451
15526132982
15526143175
15526152330
15526161363
15526168687
15526176317
15526182115
15526190599
15526196947
15526208177
15526214830
15526223741
15526229784
15526237840
15526246263
15526253770
15526259691
15526269761
15526277940
15526285020
15526293260
15526298936
15526308336
15526313279
15526323594
15526329210
15526340440
15526345140
15526355760
15526363816
15526371324
15526378343
15526386766
15526394883
15526404344
15526411668
15526418687
15526427171
15526435166
15526441697
15526449326
15526456345
15526467149
15526474595
15526482407
15526488328
15526496140
15526504319
15526511399
15526519517
15526527024
15526535325
15526541123
15526549790
15526558152
15526566025
15526570725
15526580674
15526587388
15526598923
15526603684
15526613388
15526618332
15526629013
15526637741
15526645188
15526653000
15526662461
15526669785
15526677964
15526685593
15526696762
15526703049
15526715866
15526726792
15526734604
15526743576
15526753159
15526760910
15526769943
15526777267
15526786850
15526795944
15526802902
15526809982
15526819504
15526825485
15526836288
15526841720
15526852402
15526857834
15526868271
15526876571
15526883041
15526890182
15526899337
15526906784
15526913070
15526920639
15526930832
15526938034
15526946090
15526950668
15526960617
15526968124
15526974349
15526983810
15526992233
15526999008
15527006881
15527018051
15527026229
15527032821
15527041061
15527050277
15527059554
15527065658
15527073165
15527083358
15527088668
15527099471
15527110946
15527118148
15527126388
15527133651
15527142745
15527149947
15527157393
15527166427
15527174178
15527183211
15527189559
15527196151
15527204390
15527210921
15527218978
15527228804
15527236678
15527245833
15527254378
15527261153
15527270735
15527278121
15527288863
15527297713
15527306563
15527312605
15527318587
15527322859
15527330855
15527334761
15527342940
15527350081
15527356123
15527362715
15527367659
15527373579
15527380354
15527385237
15527393721
15527401167
15527404585
15527414534
15527420393
15527428023
15527431868
15527439314
15527445112
15527453352
15527457747
15527463911
15527470808
15527475447
15527479170
15527488447
15527497603
15527501997
15527506025
15527514814
15527518171
15527525740
15527529585
15527535688
15527539778
15527548140
15527553816
15527559309
15527563703
15527569197
15527572431
15527580671
15527585615
15527593183
15527595381
15527604475
15527610945
15527615461
15527621015
15527627424
15527632185
15527640485
15527646101
15527651533
15527657026
15527663496
15527668439
15527673566
15527680219
15527686628
15527692182
15527698347
15527703535
15527710004
15527714948
15527720197
15527728254
15527733808
15527741132
15527746808
15527751142
15527757001
15527761335
15527768049
15527772443
15527780561
15527785566
15527791608
15527798078
15527804364
15527808820
15527814801
15527820600
15527827069
15527832746
15527834577
15527843732
15527850568
15527855512
15527861310
15527868451
15527874005
15527881757
15527889447
15527894696
15527899945
15527904401
15527911420
15527916852
15527924298
15527929120
15527935346
15527940534
15527946637
15527952435
15527957867
15527964215
15527971356
15527977643
15527982465
15527988629
15527994244
15528000043
15528004803
15528012921
15528019330
15528025250
15528030804
15528036603
15528042279
15528046795
15528053509
15528058026
15528065960
15528072186
15528079937
15528087750
15528096417
15528100445
15528109478
15528116925
15528122601
15528130413
15528137066
15528142804
15528147808
15528154339
15528159588
15528166546
15528171185
15528176678
15528181866
15528189861
15528195049
15528200360
15528206097
15528212750
15528218426
15528223980
15528228741
15528234234
15528238079
15528245098
15528251934
15528256207
15528261700
15528267071
15528272808
15528279217
15528284832
15528289715
15528298992
15528304424
15528310039
15528314983
15528320965
15528327434
15528333355
15528338604
15528345012
15528350384
15528356121
15528362530
15528367779
15528372722
15528378460
15528385723
15528392620
15528399761
15528404644
15528411174
15528424480
15528430095
15528435955
15528439678
15528447124
15528452495
15528457317
15528462566
15528468975
15528475200
15528481914
15528488323
15528495952
15528502300
15528510295
15528518840
15528525127
15528533611
15528539897
15528549114
15528555400
15528564861
15528571147
15528579631
15528588847
15528597942
15528605876
15528614238
15528621745
15528631145
15528638652
15528645671
15528652141
15528660502
15528670573
15528679606
15528686686
15528695231
15528702739
15528710978
15528717631
15528724650
15528733012
15528743144
15528750651
15528758830
15528765361
15528773234
15528780558
15528790507
15528796305
15528806437
15528812296
15528823161
15528832438
15528838969
15528848856
15528856425
15528865153
15528872172
15528881144
15528891459
15528898539
15528906718
15528915079
15528919108
15528930399
15528937967
15528946207
15528953226
15528959513
15528964701
15528975382
15528983622
15528989786
15528996134
15529004251
15529011820
15529020609
15529027445
15529036112
15529043863
15529051432
15529058329
15529066263
15529072977
15529080545
15529086771
15529093546
15529103067
15529111795
15529119547
15529126932
15529136148
15529142496
15529147745
15529157022
15529162576
15529172342
15529177652
15529186685
15529194131
15529203287
15529207864
15529217081
15529222757
15529232583
15529238077
15529247232
15529255594
15529262063
15529267007
15529277688
15529283792
15529292398
15529299966
15529308084
15529316629
15529324319
15529335183
15529342202
15529352578
15529359170
15529366616
15529372720
15529380654
15529388711
15529395120
15529402444
15529410317
15529418679
15529425088
15529431741
15529440713
15529450051
15529455910
15529464577
15529470315
15529479043
15529486489
15529494546
15529502724
15529510415
15529518716
15529528176
15529535195
15529542641
15529551064
15529558510
15529567727
15529574685
15529580910
15529589577
15529597207
15529606728
15529614174
15529620827
15529631508
15529640358
15529647499
15529656288
15529664711
15529670571
15529681618
15529687233
15529699135
15529705422
15529715859
15529724892
15529731300
15529739662
15529746376
15529754311
15529760963
15529769569
15529775673
15529786354
15529792824
15529802101
15529808815
15529818580
15529823952
15529829445
15529835426
15529841408
15529845131
15529852333
15529857826
15529862220
15529868568
15529874855
15529881935
15529885902
15529893409
15529900245
15529905311
15529910804
15529916908
15529923439
15529929115
15529933937
15529939186
15529946266
15529951148
15529959938
15529964149
15529973609
15529975318
15529984413
15529989845
15529995765
15530002967
15530008766
15530014076
15530019569
15530025001
15530028968
15530035987
15530041480
15530046546
15530053809
15530058936
15530064796
15530071265
15530076820
15530085242
15530090613
15530096717
15530106177
15530111365
15530117103
15530123023
15530129127
15530134986
15530138953
15530148536
15530154334
15530162696
15530168250
15530176062
15530180640
15530188636
15530194007
15530199378
15530204932
15530211524
15530217200
15530223059
15530229407
15530234656
15530242408
15530248572
15530255286
15530263831
15530269934
15530276465
15530282752
15530287573
15530293799
15530299353
15530305090
15530313574
15530318518
15530322546
15530329810
15530333594
15530341406
15530345068
15530352026
15530357458
15530363379
15530368201
15530375098
15530380835
15530386145
15530389929
15530396399
15530402502
15530409888
15530415625
15530420752
15530425574
15530432104
15530437475
15530444311
15530452063
15530457617
15530464209
15530470190
15530475073
15530481054
15530486670
15530490271
15530499487
15530505102
15530510473
15530514318
15530522009
15530526403
15530533300
15530539953
15530546545
15530551855
15530558752
15530563879
15530571386
15530576879
15530582678
15530588842
15530594579
15530599645
15530605688
15530610204
15530617529
15530623327
15530629003
15530636144
15530641393
15530650793
15530657812
15530664770
15530671056
15530677526
15530682775
15530689001
15530694921
15530699743
15530706396
15530711889
15530716833
15530723119
15530725438
15530733922
15530740941
15530746007
15530752294
15530757055
15530763341
15530769262
15530778051
15530784154
15530789891
15530796422
15530803807
15530811254
15530816930
15530822728
15530827489
15530832921
15530837682
15530843541
15530848912
15530856969
15530862462
15530869542
15530873937
15530881017
15530886571
15530892613
15530897313
15530904332
15530908605
15530914464
15530920445
15530925877
15530933019
15530937779
15530944005
15530950414
15530956517
15530958592
15530967503
15530971532
15530980809
15530984532
15530991917
15530997594
15531004368
15531009495
15531015050
15531020726
15531027623
15531033482
15531043126
15531050633
15531058506
15531066075
15531074009
15531082188
15531085240
15531097325
15531105381
15531111790
15531117588
15531128697
15531137608
15531144871
15531150303
15531160923
15531168431
15531174656
15531184788
15531191990
15531200047
15531206883
15531215427
15531222813
15531229832
15531239292
15531246494
15531252110
15531260532
15531269016
15531277927
15531282871
15531292271
15531299167
15531307163
15531316807
15531324070
15531331028
15531338657
15531345981
15531353794
15531360264
15531369602
15531376438
15531384678
15531394016
15531401279
15531410068
15531417881
15531426548
15531433017
15531442356
15531448337
15531458591
15531467136
15531475742
15531480319
15531488864
15531495395
15531504428
15531512973
15531523349
15531531100
15531539890
15531547031
15531556796
15531563388
15531571200
15531579684
15531588657
15531596042
15531604281
15531610141
15531619235
15531625278
15531633273
15531641818
15531649997
15531658420
15531664645
15531673312
15531679049
15531688449
15531693148
15531703158
15531709140
15531718539
15531725619
15531735018
15531742404
15531749850
15531756381
15531764193
15531771578
15531783175
15531790255
15531798495
15531805758
15531814608
15531822298
15531830965
15531838839
15531847079
15531854586
15531863863
15531871310
15531879549
15531886568
15531894564
15531902682
15531912752
15531920321
15531929354
15531937044
15531944918
15531952852
15531961702
15531969515
15531978365
15531985872
15531995089
15532002596
15532010897
15532017794
15532025972
15532033480
15532042757
15532050325
15532059969
15532064852
15532074800
15532082613
15532089144
15532096346
15532104768
15532111849
15532119539
15532126558
15532135103
15532141512
15532150423
15532156221
15532167085
15532172395
15532182893
15532187715
15532198396
15532206880
15532213838
15532219575
15532229707
15532237642
15532246675
15532256013
15532263643
15532270601
15532277620
15532286409
15532293977
15532302644
15532309785
15532322847
15532331269
15532340241
15532348176
15532357453
15532364411
15532372895
15532381196
15532390168
15532397675
15532403901
15532414277
15532419099
15532424714
15532426789
15532438935
15532444001
15532450288
15532457490
15532464387
15532470124
15532475495
15532482087
15532488190
15532493989
15532501679
15532506867
15532513337
15532519135
15532527802
15532532197
15532538483
15532546235
15532548798
15532557221
15532564423
15532569306
15532574677
15532579926
15532586945
15532592682
15532599213
15532605194
15532611969
15532619538
15532626618
15532632294
15532639069
15532646332
15532654389
15532659943
15532666107
15532673248
15532680145
15532687653
15532694855
15532703339
15532709564
15532716950
15532727692
15532735931
15532743927
15532753693
15532761322
15532769623
15532776886
15532780853
15532793609
15532800201
15532813812
15532821319
15532829071
15532840301
15532848968
15532857574
15532867035
15532872162
15532883087
15532890533
15532900360
15532909820
15532916046
15532925140
15532933868
15532942474
15532952850
15532959686
15532968963
15532975677
15532986419
15532994842
15533001434
15533010650
15533014068
15533028472
15533036468
15533050933
15533057159
15533067107
15533080047
15533084014
15533097747
15533106170
15533113677
15533124541
15533128997
15533140654
15533149444
15533159209
15533166777
15533170134
15533182830
15533186553
15533199981
15533207122
15533217498
15533224395
15533231658
15533238372
15533245330
15533251555
15533256438
15533266387
15533276274
15533286101
15533292693
15533300444
15533305693
15533313811
15533318633
15533326323
15533331206
15533336333
15533345244
15533349455
15533357085
15533363310
15533368254
15533374419
15533379851
15533385466
15533393950
15533397429
15533404692
15533410795
15533416044
15533421843
15533428496
15533434721
15533441252
15533447050
15533453398
15533458220
15533463591
15533468107
15533475431
15533480742
15533487394
15533492704
15533499418
15533503935
15533510466
15533515470
15533522123
15533527861
15533534208
15533543119
15533548734
15533555326
15533561369
15533565763
15533571378
15533577604
15533582548
15533590421
15533594511
15533602140
15533607084
15533612455
15533618742
15533624174
15533631498
15533639005
15533643095
15533650297
15533655851
15533660917
15533667387
15533672697
15533677946
15533684782
15533691434
15533696134
15533701932
15533707425
15533713712
15533718168
15533724088
15533731412
15533736356
15533739835
15533748075
15533752225
15533761380
15533767667
15533773038
15533782254
15533788663
15533792630
15533798917
15533802152
15533809354
15533814847
15533820340
15533825528
15533834622
15533843167
15533852201
15533859586
15533868802
15533876798
15533885953
15533895413
15533902066
15533912564
15533919461
15533928555
15533935208
15533943692
15533950162
15533959317
15533968411
15533976041
15533982632
15533990750
15533999112
15534006619
15534016018
15534024746
15534030911
15534038235
15534046780
15534054898
15534062039
15534069302
15534078396
15534087307
15534095486
15534102566
15534109280
15534117825
15534126065
15534133755
15534142117
15534148892
15534157986
15534166226
15534172512
15534180752
15534188748
15534195644
15534205654
15534212490
15534221523
15534228420
15534233059
15534248867
15534255825
15534265591
15534275844
15534282863
15534290981
15534299160
15534305874
15534314419
15534323696
15534330837
15534340053
15534346523
15534355007
15534363186
15534371730
15534378505
15534396328
15534402553
15534413234
15534417934
15534427150
15534434841
15534443202
15534448268
15534456935
15534466945
15534473415
15534481349
15534489345
15534496181
15534504359
15534512721
15534519008
15534529994
15534537196
15534546413
15534555568
15534563747
15534569972
15534577663
15534584437
15534594874
15534601893
15534610194
15534616969
15534625209
15534632228
15534640895
15534649012
15534657863
15534665553
15534673793
15534680568
15534689662
15534697352
15534704432
15534712977
15534721644
15534728968
15534735194
15534742213
15534751612
15534759974
15534767787
15534776576
15534785243
15534794276
15534800623
15534809412
15534817774
15534824732
15534832972
15534842676
15534849512
15534857691
15534865992
15534873072
15534880091
15534888880
15534896631
15534905359
15534911890
15534920435
15534929102
15534935328
15534943506
15534951319
15534958826
15534967859
15534976099
15534983789
15534990808
15534999414
15535004236
15535015406
15535026148
15535032617
15535041223
15535048059
15535053797
15535064783
15535070093
15535080652
15535090295
15535097070
15535102258
15535112451
15535121851
15535128442
15535133752
15535144434
15535154138
15535162744
15535169031
15535177637
15535184595
15535196741
15535204126
15535211450
15535218164
15535222192
15535229150
15535236841
15535242456
15535248742
15535252649
15535262048
15535267175
15535273889
15535281396
15535288232
15535296655
15535302819
15535310815
15535315820
15535321923
15535327172
15535332482
15535338830
15535344750
15535350793
15535356774
15535362512
15535371118
15535375329
15535382836
15535388512
15535394921
15535400719
15535406640
15535411584
15535417748
15535422936
15535429162
15535433862
15535440819
15535449609
15535455102
15535458703
15535468651
15535472619
15535482567
15535490136
15535495446
15535502404
15535507287
15535513695
15535518761
15535525963
15535530114
15535536156
15535543663
15535550133
15535554894
15535560326
15535568016
15535572838
15535579308
15535585533
15535590233
15535597740
15535602928
15535608422
15535614342
15535620384
15535629174
15535633873
15535642479
15535650353
15535656761
15535662499
15535668663
15535673363
15535680687
15535684166
15535691124
15535701439
15535706017
15535709312
15535717613
15535720787
15535728416
15535731834
15535738243
15535745872
15535753258
15535760094
15535764671
15535770103
15535775596
15535779198
15535786339
15535791160
15535797874
15535801292
15535809105
15535813133
15535820335
15535826561
15535833091
15535837059
15535843650
15535848350
15535853721
15535858726
15535865501
15535872581
15535877464
15535884300
15535891197
15535897666
15535903831
15535909751
15535915306
15535921653
15535926902
15535932212
15535938438
15535943626
15535949424
15535954368
15535959129
15535965965
15535970847
15535977134
15535983115
15535988670
15535993980
15535998618
15536005637
15536010459
15536014671
15536019248
15536025230
15536030479
15536035300
15536040244
15536045615
15536050559
15536056968
15536063010
15536069053
15536074180
15536081260
15536086326
15536092307
15536097495
15536103171
15536109031
15536115439
15536120505
15536126792
15536131308
15536136863
15536142478
15536149009
15536154197
15536159873
15536164389
15536171042
15536177695
15536183127
15536189231
15536193930
15536200461
15536206931
15536211753
15536215354
15536224387
15536227805
15536236106
15536239890
15536248496
15536253073
15536263205
15536269675
15536278464
15536288290
15536295676
15536303915
15536309531
15536318625
15536322714
15536335776
15536340353
15536353171
15536360068
15536366476
15536376974
15536386252
15536393332
15536401083
15536410849
15536417624
15536426657
15536434713
15536443136
15536450399
15536457418
15536466391
15536473471
15536480185
15536488790
15536495809
15536506369
15536511923
15536521993
15536529440
15536537435
15536544943
15536552389
15536560262
15536569723
15536577230
15536584432
15536590658
15536600179
15536607259
15536614339
15536622762
15536631063
15536639791
15536647909
15536656393
15536662740
15536672384
15536680379
15536687704
15536696493
15536703145
15536710775
15536719503
15536726156
15536734273
15536742391
15536749349
15536759542
15536766378
15536771382
15536782308
15536787618
15536797567
15536804586
15536811544
15536822103
15536830586
15536837972
15536846517
15536854146
15536861287
15536868306
15536875813
15536882954
15536891744
15536900044
15536908040
15536914937
15536924031
15536930562
15536935567
15536946248
15536951558
15536962544
15536967854
15536978230
15536983296
15536993367
15536998738
15537008687
15537015889
15537023762
15537030720
15537039814
15537046101
15537054036
15537062886
15537071308
15537077778
15537087361
15537093647
15537102619
15537109516
15537114399
15537125508
15537130451
15537140461
15537145954
15537155415
15537162861
15537173115
15537180683
15537186970
15537195942
15537202290
15537211811
15537219990
15537226337
15537234943
15537242023
15537251423
15537258259
15537266254
15537273273
15537281025
15537292194
15537297138
15537307941
15537315082
15537322834
15537332660
15537339924
15537349018
15537357746
15537368244
15537376239
15537382953
15537393146
15537400348
15537408771
15537417682
15537426166
15537432758
15537437824
15537450641
15537457233
15537465289
15537472614
15537482684
15537491473
15537498126
15537505634
15537515277
15537522418
15537530414
15537540118
15537547565
15537554156
15537563434
15537570636
15537580523
15537586810
15537595904
15537602191
15537607074
15537620379
15537630328
15537638873
15537646502
15537652423
15537657000
15537667315
15537675250
15537681292
15537688616
15537698870
15537706805
15537713336
15537720294
15537728472
15537735003
15537742632
15537752581
15537760272
15537767230
15537776141
15537785723
15537792071
15537798602
15537807696
15537816546
15537819720
15537830828
15537836748
15537843035
15537845354
15537854632
15537856646
15537867815
15537873308
15537879839
15537886675
15537892046
15537899309
15537904253
15537910906
15537916094
15537922747
15537927507
15537933367
15537939837
15537944902
15537951433
15537956438
15537963213
15537969316
15537974749
15537980425
15537985796
15537992754
15537996477
15538003801
15538010576
15538017412
15538021746
15538029131
15538032854
15538041399
15538045305
15538053179
15538058367
15538064531
15538068010
15538076372
15538081865
15538088091
15538095781
15538101396
15538110124
15538115434
15538122087
15538127580
15538132768
15538139360
15538145341
15538150102
15538157243
15538162858
15538168230
15538173662
15538180803
15538185991
15538191362
15538197648
15538203813
15538209184
15538215654
15538220598
15538227006
15538232316
15538237687
15538243425
15538249650
15538255571
15538262040
15538266740
15538273149
15538278215
15538284806
15538291337
15538296281
15538303239
15538309831
15538314836
15538320756
15538327104
15538332719
15538337907
15538344071
15538349015
15538356156
15538362687
15538368913
15538375321
15538381486
15538388749
15538393998
15538400468
15538406571
15538413468
15538420792
15538427201
15538432572
15538438920
15538444535
15538451432
15538457719
15538464738
15538470231
15538476761
15538483170
15538487748
15538494828
15538500748
15538505936
15538511857
15538519913
15538526261
15538532547
15538537857
15538543473
15538548722
15538555680
15538561661
15538569596
15538576737
15538582413
15538589432
15538595047
15538602494
15538609146
15538616043
15538623367
15538630753
15538635391
15538642716
15538648087
15538657242
15538662491
15538668350
15538675613
15538682510
15538689774
15538694778
15538701370
15538707352
15538715469
15538721817
15538728104
15538735062
15538744827
15538752884
15538760208
15538765091
15538773880
15538779678
15538786392
15538792984
15538797989
15538804397
15538808243
15538817459
15538821243
15538829116
15538835281
15538841323
15538847488
15538853958
15538860061
15538867691
15538873367
15538879104
15538884048
15538891006
15538896316
15538903884
15538910354
15538915725
15538922256
15538928604
15538935562
15538940078
15538947036
15538951370
15538959609
15538965835
15538971572
15538977493
15538983596
15538990554
15538996291
15539002578
15539009048
15539014358
15539019363
15539024184
15539032058
15539037856
15539044448
15539049514
15539055251
15539061172
15539067458
15539073195
15539080276
15539084975
15539089492
15539098342
15539105605
15539112624
15539117263
15539125869
15539130385
15539140883
15539146804
15539159133
15539164809
15539174208
15539180251
15539184645
15539189772
15539197951
15539204543
15539210463
15539216017
15539222182
15539228285
15539235610
15539241225
15539246291
15539251112
15539258620
15539264662
15539271498
15539277968
15539284438
15539290968
15539297499
15539302382
15539306898
15539315138
15539319838
15539328566
15539335768
15539339796
15539345351
15539350966
15539355849
15539362562
15539369703
15539375380
15539380873
15539386549
15539390272
15539397169
15539401442
15539410963
15539415968
15539424208
15539427565
15539435377
15539440687
15539445936
15539451124
15539456495
15539459974
15539466993
15539472425
15539479200
15539484327
15539491163
15539496839
15539501478
15539506483
15539513624
15539519117
15539525648
15539528822
15539535719
15539541395
15539545850
15539551038
15539559034
15539562452
15539568678
15539573682
15539580946
15539586439
15539592115
15539597974
15539604810
15539608961
15539615858
15539620740
15539626356
15539632642
15539638441
15539643995
15539652784
15539658155
15539664075
15539669507
15539675550
15539679822
15539687024
15539692212
15539699170
15539704175
15539710462
15539714917
15539721814
15539727002
15539732862
15539738721
15539745618
15539752088
15539758069
15539765515
15539771131
15539776868
15539782178
15539788343
15539799024
15539804883
15539812085
15539818067
15539820081
15539829541
15539834546
15539840466
15539847363
15539852246
15539858167
15539863904
15539870374
15539875378
15539882031
15539886365
15539893262
15539900159
15539903455
15539911206
15539914929
15539923047
15539927014
15539934277
15539940076
15539947034
15539952466
15539959057
15539963940
15539969678
15539976086
15539980664
15539989148
15539995373
15540005078
15540011670
15540021801
15540026684
15540030590
15540038403
15540044812
15540049816
15540056286
15540061474
15540067456
15540072888
15540076794
15540086254
15540092114
15540097729
15540104016
15540109997
15540114819
15540120861
15540126415
15540131359
15540137646
15540142834
15540148815
15540153637
15540159802
15540165478
15540171032
15540176464
15540183971
15540189709
15540196056
15540199718
15540205517
15540210094
15540216381
15540222362
15540229137
15540235119
15540242077
15540246898
15540252514
15540256908
15540264232
15540269298
15540277965
15540282909
15540289135
15540294201
15540299694
15540307201
15540313305
15540320324
15540329235
15540334789
15540340038
15540346202
15540351940
15540356517
15540362621
15540367443
15540375988
15540380931
15540386974
15540392955
15540398754
15540406017
15540412059
15540418834
15540426036
15540432323
15540438304
15540444774
15540449840
15540455699
15540459972
15540467906
15540474010
15540480174
15540482188
15540490611
15540494823
15540502269
15540505748
15540513621
15540522349
15540528026
15540531749
15540541026
15540546763
15540552623
15540556102
15540562877
15540570750
15540577220
15540582408
15540587718
15540592906
15540605174
15540614390
15540619639
15540627391
15540632823
15540639415
15540644725
15540650218
15540655650
15540664988
15540668772
15540674937
15540679270
15540684580
15540691111
15540697398
15540703684
15540707957
15540713389
15540716685
15540723948
15540727427
15540735667
15540739634
15540747813
15540753306
15540758860
15540764964
15540771433
15540778391
15540783213
15540790354
15540795298
15540801890
15540807261
15540814280
15540821238
15540827280
15540833628
15540839426
15540844675
15540849863
15540851511
15540859812
15540864817
15540870188
15540876902
15540882822
15540887217
15540894724
15540901133
15540906931
15540912485
15540920664
15540925241
15540931101
15540936655
15540943064
15540951120
15540956613
15540964121
15540970896
15540974436
15540982126
15540987985
15540994577
15541000070
15541006723
15541012277
15541016855
15541023142
15541028818
15541035715
15541040537
15541045908
15541052866
15541057260
15541066354
15541072580
15541077646
15541084055
15541090646
15541095895
15541102731
15541108713
15541114816
15541119699
15541125986
15541130868
15541136484
15541141977
15541148630
15541155954
15541167184
15541171945
15541180368
15541185922
15541191964
15541196359
15541203683
15541209970
15541214975
15541222177
15541227182
15541233285
15541238168
15541245004
15541251229
15541257638
15541263803
15541268746
15541274850
15541280465
15541285043
15541290658
15541296700
15541302804
15541307199
15541313607
15541318978
15541322640
15541331368
15541338876
15541344003
15541351266
15541356515
15541362130
15541366464
15541372262
15541376717
15541383065
15541387643
15541390939
15541400338
15541406441
15541411019
15541417306
15541423897
15541429207
15541435067
15541440743
15541445504
15541450265
15541456429
15541460030
15541466744
15541473885
15541480843
15541487801
15541494271
15541497933
15541505318
15541511177
15541516854
15541524117
15541530342
15541533821
15541540169
15541546212
15541552437
15541558907
15541563240
15541571480
15541578438
15541580208
15541590279
15541596443
15541601753
15541609078
15541614021
15541620552
15541627510
15541633675
15541639473
15541646980
15541652474
15541658211
15541663277
15541669868
15541677193
15541683113
15541689156
15541695564
15541701363
15541708076
15541713936
15541720894
15541724556
15541731026
15541734566
15541739937
15541746406
15541757393
15541761970
15541770576
15541776619
15541781624
15541787788
15541793342
15541798225
15541804817
15541812263
15541818916
15541824836
15541832405
15541838691
15541845100
15541850471
15541856452
15541861885
15541868232
15541873298
15541880134
15541885627
15541890510
15541896919
15541901801
15541907173
15541912788
15541919319
15541925361
15541930549
15541935859
15541941169
15541947456
15541952888
15541959235
15541964301
15541971137
15541974860
15541981513
15541986884
15541992988
15541998847
15542006293
15542011542
15542018500
15542022285
15542029914
15542034125
15542046821
15542051154
15542060615
15542067206
15542074897
15542081122
15542087226
15542094184
15542101508
15542108161
15542113410
15542119208
15542125983
15542132697
15542138800
15542145148
15542151679
15542161566
15542168280
15542175177
15542181525
15542186286
15542192023
15542196662
15542204779
15542210394
15542217108
15542222479
15542228217
15542232855
15542239325
15542244147
15542251898
15542257147
15542263678
15542268988
15542276190
15542280524
15542288031
15542294379
15542299689
15542304816
15542310309
15542315375
15542322577
15542326300
15542332953
15542339178
15542346319
15542353583
15542363348
15542369085
15542375311
15542383368
15542387457
15542394781
15542400518
15542406378
15542409674
15542415350
15542419989
15542426153
15542434942
15542439581
15542445318
15542452459
15542459112
15542463690
15542471624
15542477545
15542482488
15542487860
15542493597
15542498846
15542506048
15542511114
15542516119
15542521490
15542528570
15542533819
15542539617
15542545599
15542552801
15542558538
15542563848
15542570867
15542576543
15542581731
15542588323
15542593938
15542600591
15542606756
15542612615
15542617620
15542625127
15542630437
15542636053
15542642522
15542647039
15542651739
15542659124
15542665166
15542672796
15542676641
15542683965
15542690496
15542696477
15542702153
15542707525
15542714788
15542719487
15542726506
15542732610
15542739202
15542746953
15542751653
15542760747
15542767156
15542773076
15542779241
15542783757
15542789861
15542794499
15542803227
15542808232
15542815373
15542820378
15542825871
15542830937
15542836858
15542841863
15542848882
15542852910
15542860295
15542863835
15542870610
15542876164
15542882573
15542889409
15542894414
15542899052
15542904973
15542910649
15542916142
15542923466
15542930607
15542938786
15542942692
15542951237
15542957219
15542962773
15542967289
15542973576
15542980412
15542987248
15542992680
15542997624
15543005497
15543011845
15543017765
15543022831
15543030156
15543035832
15543043339
15543048649
15543054203
15543059696
15543066410
15543071781
15543076847
15543083500
15543088505
15543093571
15543101933
15543107914
15543114201
15543120060
15543125492
15543132572
15543137638
15543144596
15543149662
15543155277
15543162052
15543169193
15543174564
15543180241
15543186466
15543190006
15543197636
15543202701
15543209354
15543215580
15543220707
15543227054
15543234379
15543239139
15543245365
15543250370
15543260441
15543266422
15543272342
15543277713
15543283939
15543289493
15543296146
15543301761
15543311100
15543317569
15543323062
15543329837
15543335453
15543341373
15543347843
15543352481
15543356082
15543365238
15543372196
15543376529
15543382572
15543388004
15543396121
15543401187
15543407962
15543412296
15543420718
15543426517
15543433109
15543439273
15543445010
15543450931
15543457156
15543461063
15543468570
15543472232
15543479190
15543483462
15543492435
15543496280
15543507510
15543515018
15543521304
15543528934
15543534366
15543543338
15543549075
15543555789
15543560916
15543568057
15543572818
15543579776
15543584659
15543592105
15543596927
15543604495
15543611636
15543617495
15543622439
15543629824
15543634829
15543643191
15543648135
15543654849
15543660769
15543666018
15543671816
15543677127
15543683413
15543690676
15543696230
15543702334
15543709109
15543715640
15543722170
15543724368
15543733218
15543737551
15543750979
15543759097
15543768252
15543779299
15543786867
15543797488
15543807925
15543814883
15543825747
15543835818
15543845888
15543853090
15543858889
15543868166
15543876284
15543883852
15543890871
15543898500
15543907900
15543915224
15543923037
15543931093
15543939394
15543949221
15543956850
15543965334
15543974184
15543982424
15543987490
15543997804
15544005312
15544012331
15544022707
15544027284
15544037477
15544046205
15544054140
15544060609
15544069093
15544077638
15544085573
15544093874
15544102540
15544110109
15544117311
15544125429
15544135133
15544143251
15544148073
15544158265
15544166871
15544174806
15544184083
15544190980
15544200563
15544210267
15544220460
15544229249
15544237916
15544246827
15544255067
15544263734
15544272096
15544281800
15544293214
15544299928
15544309876
15544315858
15544327088
15544334840
15544342408
15544354737
15544362611
15544368348
15544379151
15544385743
15544395814
15544407227
15544414918
15544423218
15544432252
15544441956
15544450745
15544457520
15544466614
15544477295
15544484803
15544496643
15544506409
15544516480
15544524170
15544532105
15544540345
15544548828
15544557678
15544566834
15544576233
15544583069
15544591248
15544599732
15544607361
15544615784
15544622925
15544630982
15544638245
15544646606
15544653931
15544662231
15544672180
15544680115
15544688110
15544696960
15544704895
15544713745
15544722534
15544730774
15544738769
15544747497
15544754211
15544763244
15544771362
15544780639
15544789306
15544797180
15544803955
15544811157
15544821228
15544827880
15544836975
15544846740
15544854553
15544863464
15544869995
15544878845
15544887329
15544896240
15544904907
15544912414
15544922118
15544930785
15544938598
15544946716
15544955199
15544963195
15544971557
15544977965
15544987426
15544997375
15545012267
15545021300
15545029662
15545039245
15545043944
15545054870
15545059203
15545067016
15545072265
15545077453
15545083068
15545087584
15545093810
15545098082
15545104247
15545108397
15545113890
15545120238
15545124633
15545128661
15545133422
15545137511
15545141967
15545146056
15545151305
15545155821
15545161559
15545165648
15545171874
15545177184
15545181700
15545184569
15545190184
15545193907
15545199523
15545204466
15545209166
15545213377
15545218443
15545223021
15545228270
15545234312
15545238280
15545244261
15545248595
15545254393
15545258421
15545264891
15545270079
15545276549
15545281432
15545287108
15545291624
15545298094
15545302794
15545307860
15545314940
15545319334
15545326231
15545331175
15545335875
15545342344
15545348265
15545354185
15545360167
15545366270
15545370848
15545377684
15545384153
15545389708
15545394163
15545397825
15545406797
15545414122
15545420530
15545422483
15545430784
15545434385
15545442625
15545446165
15545453184
15545460447
15545465147
15545471311
15545480955
15545487791
15545492613
15545499998
15545507017
15545512693
15545519407
15545523252
15545531492
15545535093
15545542478
15545548032
15545556150
15545563047
15545570310
15545576353
15545584104
15545588926
15545594358
15545600706
15545605710
15545610715
15545619871
15545624570
15545630857
15545635557
15545641843
15545647275
15545652829
15545661191
15545667539
15545672727
15545678403
15545684263
15545689389
15545695127
15545701108
15545706357
15545714109
15545720029
15545726133
15545732175
15545737485
15545743039
15545747800
15545753415
15545759641
15545765805
15545772275
15545776669
15545783627
15545790036
15545794675
15545800656
15545808041
15545814877
15545819821
15545825620
15545830747
15545836789
15545840268
15545848141
15545852292
15545861569
15545864926
15545873288
15545877133
15545885068
15545891049
15545895566
15545900693
15545907162
15545912594
15545918698
15545924191
15545929989
15545936947
15545942318
15545948666
15545956540
15545962521
15545969235
15545973507
15545980465
15545984982
15545991879
15545996334
15546003781
15546008541
15546011898
15546020504
15546023983
15546031857
15546049252
15546056759
15546062802
15546071591
15546075680
15546085812
15546089840
15546096432
15546101437
15546108151
15546111935
15546119442
15546123287
15546129940
15546135799
15546142147
15546147701
15546155331
15546161861
15546167904
15546175350
15546185177
15546190243
15546197933
15546204220
15546210934
15546214474
15546221493
15546227169
15546231563
15546237606
15546243648
15546247371
15546254451
15546260311
15546267025
15546270809
15546278133
15546281490
15546288875
15546296688
15546301998
15546305416
15546312069
15546318294
15546323665
15546328792
15546334651
15546339656
15546345638
15546351558
15546357784
15546363887
15546368221
15546374202
15546378963
15546384090
15546392330
15546398738
15546405269
15546410518
15546416438
15546420833
15546426570
15546433345
15546437679
15546443599
15546448543
15546455196
15546461665
15546466121
15546472530
15546478389
15546485469
15546490413
15546497005
15546501765
15546505733
15546514949
15546518916
15546525569
15546529536
15546538447
15546542476
15546549739
15546553950
15546561030
15546568477
15546575862
15546581965
15546587214
15546593562
15546600947
15546607234
15546614924
15546620417
15546625910
15546631953
15546637751
15546642939
15546648860
15546654292
15546661921
15546666804
15546672053
15546679011
15546685114
15546690547
15546697382
15546704585
15546710017
15546717280
15546723505
15546728388
15546734919
15546740961
15546745356
15546753168
15546757136
15546764216
15546769221
15546775690
15546783625
15546794977
15546800776
15546806696
15546813105
15546817866
15546824885
15546831476
15546837885
15546842402
15546847956
15546854059
15546859980
15546865168
15546872553
15546878840
15546886713
15546891840
15546898981
15546903620
15546909662
15546916010
15546921076
15546925653
15546933466
15546937738
