15719816751
15719822611
15719827188
15719833536
15719839395
15719845133
15719851297
15719857401
15719863443
15719870462
15719877420
15719884134
15719890421
15719896280
15719902872
15719908914
15719916116
15719922159
15719928934
15719936563
15719942972
15719949441
15719957376
15719963907
15719970621
15719977517
15719985269
15719992776
15719999124
15720006448
15720013711
15720020364
15720027383
15720036294
15720043008
15720052224
15720058145
15720066323
15720074380
15720080667
15720088540
15720095986
15720103799
15720112222
15720118814
15720125710
15720132485
15720139565
15720146523
15720152078
15720158730
15720166116
15720172158
15720178506
15720186684
15720192300
15720199685
15720206094
15720211831
15720219521
15720225564
15720232705
15720238137
15720243630
15720250588
15720256203
15720262734
15720270363
15720276711
15720281716
15720290078
15720296242
15720301796
15720310158
15720316323
15720322426
15720328591
15720336647
15720341835
15720349404
15720355141
15720364785
15720371254
15720377358
15720383522
15720391335
15720398049
15720403359
15720409828
15720418007
15720422157
15720430885
15720437599
15720443276
15720450417
15720456276
15720464272
15720470619
15720477272
15720483803
15720489296
15720496620
15720502724
15720510780
15720516762
15720523292
15720529701
15720539162
15720546181
15720552650
15720560707
15720567177
15720572670
15720577980
15720584266
15720591285
15720596657
15720602882
15720608314
15720615394
15720621009
15720627479
15720636329
15720642921
15720648841
15720654457
15720663246
15720669837
15720675575
15720685035
15720690895
15720698341
15720706214
15720712196
15720719764
15720725379
15720734229
15720741065
15720747413
15720754554
15720760963
15720768409
15720775184
15720783729
15720789771
15720797828
15720806434
15720813026
15720820045
15720828345
15720834388
15720841285
15720847693
15720853858
15720860938
15720866981
15720874183
15720880591
15720888221
15720894446
15720901832
15720907752
15720915625
15720921180
15720927283
15720934424
15720939856
15720946936
15720955115
15720960669
15720966040
15720974524
15720981238
15720988501
15720994910
15721001868
15721008582
15721015723
15721024268
15721030371
15721036536
15721042395
15721050025
15721056128
15721061804
15721069556
15721075537
15721082922
15721090552
15721095923
15721103491
15721109656
15721117163
15721123755
15721130530
15721137732
15721145056
15721152563
15721160742
15721168005
15721174719
15721181494
15721188513
15721197607
15721207129
15721213903
15721221472
15721228308
15721237951
15721244726
15721251318
15721260351
15721267187
15721275427
15721282080
15721289770
15721296423
15721304601
15721310827
15721317480
15721322485
15721328710
15721333471
15721337682
15721344091
15721349157
15721353735
15721358923
15721363989
15721369543
15721374548
15721379369
15721385290
15721391332
15721396642
15721403478
15721408910
15721413610
15721418859
15721424657
15721431188
15721437658
15721443456
15721448827
15721454870
15721460607
15721465978
15721472387
15721477392
15721483739
15721489110
15721494176
15721498876
15721503759
15721509618
15721513585
15721519567
15721523778
15721530126
15721536962
15721541784
15721546056
15721552220
15721555761
15721562230
15721567052
15721571324
15721578099
15721582372
15721587194
15721591649
15721596532
15721602880
15721607396
15721614903
15721619420
15721623815
15721629735
15721634435
15721639684
15721644566
15721651952
15721657323
15721661351
15721669286
15721673497
15721679539
15721685948
15721691991
15721696751
15721703709
15721709386
15721714879
15721720006
15721725560
15721731663
15721737279
15721742894
15721748387
15721751378
15721758763
15721763890
15721770665
15721775731
15721780552
15721788548
15721792332
15721799534
15721803807
15721811619
15721816197
15721821690
15721826512
15721832615
15721838047
15721843541
15721851048
15721857273
15721861668
15721867649
15721874119
15721879734
15721884556
15721889561
15721894810
15721901280
15721906590
15721912144
15721917820
15721924046
15721928867
15721934116
15721940098
15721946262
15721952244
15721957371
15721962864
15721968723
15721974827
15721979771
15721985264
15721991795
15721997715
15722003941
15722010105
15722015903
15722021885
15722029148
15722035679
15722040684
15722047642
15722052280
15722059116
15722065891
15722071079
15722075657
15722080478
15722087436
15722093296
15722098789
15722104587
15722110080
15722114780
15722119358
15722124912
15722131504
15722136997
15722140720
15722147251
15722152072
15722157444
15722163852
15722169101
15722174411
15722182407
15722187595
15722192600
15722198154
15722203647
15722209751
15722215366
15722220798
15722227207
15722232700
15722238071
15722242282
15722248569
15722254489
15722260104
15722265781
15722272311
15722277866
15722282870
15722288425
15722291537
15722298007
15722305270
15722310397
15722315524
15722320285
15722326999
15722331637
15722339023
15722343295
15722348788
15722354831
15722360934
15722367038
15722374057
15722381564
15722387179
15722392001
15722397616
15722403293
15722408908
15722411959
15722419589
15722427157
15722432223
15722437411
15722442416
15722449435
15722454745
15722461337
15722471041
15722478549
15722485201
15722495272
15722502413
15722511080
15722519015
15722527255
15722535189
15722541476
15722550326
15722558077
15722562472
15722572665
15722579806
15722590487
15722595003
15722604891
15722612643
15722621737
15722628939
15722637728
15722646029
15722656893
15722665499
15722673556
15722682894
15722693087
15722700594
15722710054
15722718172
15722725924
15722735750
15722744295
15722752413
15722761873
15722767977
15722776094
15722784578
15722792147
15722800203
15722808748
15722817110
15722826997
15722837618
15722848543
15722859651
15722870149
15722880891
15722891634
15722899202
15722912874
15722922945
15722934602
15722946321
15722957002
15722967256
15722977266
15722986238
15722997712
15723007173
15723018708
15723028779
15723041169
15723055390
15723066255
15723076203
15723085359
15723095185
15723105012
15723115632
15723125581
15723135407
15723144502
15723154206
15723163239
15723173127
15723183259
15723194306
15723204804
15723214387
15723223481
15723232636
15723243500
15723251679
15723260773
15723272004
15723282807
15723292206
15723301117
15723308991
15723320282
15723330841
15723339081
15723347809
15723359345
15723368073
15723376923
15723385712
15723398529
15723406830
15723417023
15723425140
15723435211
15723445953
15723458038
15723467072
15723476837
15723486725
15723498199
15723507416
15723515533
15723526703
15723535553
15723544769
15723558868
15723569366
15723581817
15723591766
15723601898
15723612945
15723622955
15723633209
15723641388
15723652313
15723661468
15723671234
15723680511
15723690460
15723701934
15723709808
15723720977
15723732513
15723740630
15723751983
15723762420
15723768523
15723782622
15723791778
15723803435
15723811919
15723819671
15723830047
15723837432
15723846709
15723857390
15723867339
15723879302
15723890044
15723899260
15723907622
15723918059
15723928252
15723938018
15723948333
15723958892
15723970000
15723979705
15723990203
15723999907
15724008574
15724018034
15724028288
15724039092
15724049101
15724059050
15724068449
15724076811
15724087859
15724097685
15724106230
15724114043
15724122038
15724130888
15724139921
15724147551
15724155790
15724165495
15724173491
15724180449
15724189604
15724196257
15724203947
15724213163
15724220610
15724229521
15724236540
15724244352
15724253324
15724260954
15724268888
15724276823
15724284513
15724292814
15724300993
15724307646
15724316984
15724326139
15724333646
15724341703
15724350309
15724357023
15724367094
15724374418
15724381437
15724388395
15724395719
15724400175
15724404630
15724410062
15724415311
15724419523
15724426359
15724431425
15724435331
15724440153
15724444242
15724449796
15724453641
15724459318
15724464933
15724469388
15724474149
15724478299
15724485074
15724489835
15724494718
15724499723
15724504667
15724510038
15724514249
15724519254
15724523526
15724529691
15724534879
15724540982
15724544583
15724549893
15724554593
15724558621
15724563565
15724567777
15724575955
15724581204
15724585965
15724589749
15724595059
15724597440
15724604337
15724610074
15724615140
15724620206
15724624844
15724629605
15724634305
15724638944
15724643826
15724649930
15724656705
15724662442
15724667142
15724671963
15724676907
15724681729
15724687649
15724694852
15724699551
15724705472
15724710721
15724717557
15724727078
15724733975
15724743008
15724748623
15724754300
15724759610
15724764126
15724770291
15724775845
15724780911
15724787930
15724793362
15724798489
15724804043
15724809231
15724814846
15724821499
15724828030
15724834011
15724838894
15724844448
15724850247
15724854824
15724859951
15724864773
15724871426
15724877896
15724888027
15724892849
15724897976
15724904019
15724911587
15724920437
15724925320
15724930935
15724936428
15724940823
15724944729
15724949001
15724956753
15724960659
15724964931
15724969875
15724975185
15724979763
15724985500
15724989651
15724995815
15725000576
15725006801
15725011623
15725016445
15725022060
15725028347
15725034389
15725039516
15725044033
15725050075
15725053493
15725060085
15725065151
15725070156
15725075771
15725081386
15725086635
15725091945
15725097316
15725102626
15725107692
15725115200
15725121364
15725126308
15725132534
15725138942
15725144435
15725149684
15725155117
15725160427
15725166591
15725172023
15725177516
15725183681
15725189479
15725194728
15725199733
15725205348
15725214198
15725221584
15725230800
15725238673
15725246242
15725253566
15725261012
15725269740
15725277980
15725286098
15725293849
15725302028
15725310145
15725318019
15725325160
15725335353
15725342189
15725352504
15725358302
15725366053
15725375697
15725382716
15725390040
15725397120
15725405787
15725413173
15725421412
15725428248
15725436488
15725443324
15725451502
15725462245
15725473475
15725482386
15725489894
15725497523
15725507594
15725514796
15725525172
15725535487
15725541468
15725554774
15725563441
15725571864
15725579127
15725589747
15725599329
15725606226
15725616602
15725623072
15725630274
15725636988
15725645472
15725651453
15725661524
15725668238
15725676111
15725683985
15725689478
15725695826
15725703943
15725712671
15725719812
15725726221
15725733240
15725739283
15725746546
15725752832
15725762781
15725769556
15725774988
15725782495
15725787988
15725795496
15725803247
15725809290
15725818140
15725823999
15725831934
15725839136
15725845300
15725853601
15725859705
15725868921
15725877100
15725885522
15725891016
15725897790
15725905542
15725911584
15725922693
15725929956
15725938440
15725944909
15725952722
15725958642
15725965478
15725974206
15725982873
15725989099
15725997766
15726003991
15726012658
15726017785
15726027185
15726035119
15726043359
15726049768
15726056054
15726062036
15726071008
15726077844
15726086328
15726092614
15726098596
15726107079
15726113976
15726119836
15726130700
15726137475
15726144006
15726150842
15726158837
15726164025
15726172509
15726181969
15726192284
15726200585
15726207116
15726216332
15726222741
15726232995
15726239892
15726249779
15726256127
15726264245
15726273095
15726281151
15726289635
15726296166
15726304161
15726310997
15726318932
15726325585
15726332970
15726341271
15726347191
15726355858
15726364647
15726372154
15726378868
15726386009
15726392845
15726398888
15726407433
15726415917
15726422508
15726432091
15726439659
15726446861
15726454247
15726460960
15726467430
15726475914
15726484337
15726490135
15726498619
15726503868
15726507408
15726512718
15726520469
15726526817
15726532982
15726537193
15726542320
15726547508
15726552208
15726560081
15726564903
15726570457
15726575523
15726580040
15726584373
15726589500
15726594261
15726601158
15726605735
15726610923
15726615989
15726621788
15726626731
15726634117
15726638267
15726645286
15726649925
15726656639
15726661216
15726672080
15726678184
15726682517
15726688804
15726694969
15726700584
15726706992
15726713340
15726718955
15726724815
15726727988
15726736594
15726742088
15726747764
15726753196
15726759238
15726764732
15726771079
15726776389
15726782310
15726788596
15726793601
15726800376
15726806663
15726813560
15726820029
15726826438
15726835898
15726844748
15726850913
15726856650
15726862388
15726867881
15726874228
15726879905
15726885398
15726890647
15726896201
15726900351
15726907676
15726913169
15726919150
15726924338
15726930625
15726936301
15726941855
15726947043
15726952536
15726958029
15726963950
15726969931
15726976035
15726981528
15726987631
15726993125
15726998496
15727003684
15727007407
15727013327
15727019370
15727026144
15727031638
15727038107
15727044882
15727050253
15727054770
15727061118
15727067892
15727073752
15727078574
15727084555
15727091635
15727096701
15727102133
15727108664
15727114950
15727119223
15727125021
15727131369
15727136740
15727143393
15727149374
15727155600
15727160971
15727167074
15727172384
15727177084
15727183615
15727191305
15727197592
15727204184
15727211203
15727217367
15727224081
15727228781
15727236959
15727242758
15727248861
15727254171
15727260702
15727267782
15727274984
15727279867
15727285909
15727292684
15727298788
15727302206
15727310140
15727315572
15727324728
15727330099
15727336019
15727341390
15727348714
15727354208
15727359762
15727365011
15727370687
15727377157
15727383016
15727389181
15727395101
15727400655
15727406087
15727411825
15727417745
15727423360
15727429586
15727436788
15727443441
15727449117
15727455465
15727461202
15727467000
15727473592
15727479329
15727485372
15727492635
15727498372
15727502767
15727507528
15727512288
15727519368
15727524434
15727529927
15727535237
15727540120
15727545247
15727549825
15727556966
15727562154
15727567281
15727572408
15727577840
15727583089
15727588155
15727593038
15727600179
15727606709
15727610555
15727615743
15727620564
15727626057
15727631001
15727637105
15727643697
15727648824
15727654927
15727659810
15727665425
15727671040
15727677876
15727685567
15727693684
15727703633
15727709859
15727718037
15727726094
15727733784
15727741963
15727751423
15727759663
15727766621
15727773762
15727781208
15727789692
15727797139
15727807515
15727813313
15727823323
15727830708
15727837666
15727847981
15727855549
15727863972
15727871296
15727879658
15727886982
15727895710
15727903401
15727914143
15727920918
15727929462
15727936665
15727944843
15727953327
15727960895
15727968586
15727977192
15727984272
15727992634
15728001057
15728009113
15728016498
15728024799
15728031757
15728043598
15728051166
15728059833
15728064411
15728075214
15728083271
15728088520
15728098896
15728107074
15728114582
15728122211
15728129535
15728139057
15728146381
15728155414
15728163776
15728172016
15728180866
15728194721
15728202289
15728210956
15728220538
15728229877
15728239581
15728247455
15728257098
15728264545
15728271869
15728281146
15728290362
15728298541
15728306476
15728314715
15728322284
15728330096
15728337481
15728345233
15728352069
15728359454
15728368182
15728376117
15728380328
15728390643
15728398700
15728405230
15728411944
15728420367
15728427264
15728433978
15728443743
15728450640
15728458087
15728466631
15728473345
15728480120
15728490069
15728496172
15728505328
15728510943
15728520220
15728525713
15728534930
15728541338
15728549334
15728558062
15728565569
15728572466
15728579851
15728587054
15728594378
15728601885
15728610186
15728619951
15728628618
15728635515
15728658831
15728666338
15728674517
15728683001
15728691423
15728698870
15728706926
15728713213
15728720110
15728729387
15728736284
15728743669
15728752519
15728760027
15728769182
15728776811
15728785417
15728792925
15728799333
15728807512
15728818132
15728824724
15728833208
15728841386
15728848711
15728857011
15728865861
15728873857
15728878374
15728888078
15728896013
15728904619
15728911882
15728921647
15728928972
15728934953
15728945756
15728953141
15728961320
15728968827
15728977983
15728986467
15728995683
15729004777
15729014543
15729023454
15729031449
15729039933
15729048478
15729057267
15729065080
15729072831
15729080399
15729087602
15729096085
15729101395
15729106950
15729112382
15729117631
15729122086
15729127396
15729134293
15729140092
15729145646
15729149918
15729156022
15729161515
15729164384
15729171036
15729177384
15729183671
15729189652
15729195389
15729200089
15729204667
15729209550
15729216141
15729220780
15729225846
15729230851
15729236649
15729241837
15729248002
15729253800
15729259964
15729265152
15729270035
15729276505
15729282242
15729288102
15729294388
15729300003
15729305374
15729311539
15729317215
15729322769
15729328446
15729334061
15729336991
15729343704
15729349014
15729355606
15729362381
15729367813
15729372757
15729379105
15729384964
15729390091
15729396134
15729401383
15729406998
15729412857
15729419815
15729425247
15729430984
15729436050
15729442459
15729448563
15729454117
15729459305
15729465530
15729470718
15729475967
15729481094
15729486587
15729493790
15729497818
15729505264
15729511001
15729516617
15729522659
15729529434
15729533951
15729539566
15729544876
15729550003
15729555740
15729561355
15729567032
15729572708
15729577163
15729583511
15729589309
15729596267
15729603653
15729610244
15729616470
15729623367
15729630630
15729635635
15729642532
15729648269
15729655166
15729660964
15729667312
15729672561
15729677017
15729683669
15729687698
15729694167
15729699172
15729704910
15729710891
15729716140
15729720596
15729726333
15729731948
15729737746
15729744949
15729750381
15729755508
15729759475
15729764602
15729769668
15729776015
15729782424
15729788039
15729794265
15729799758
15729805251
15729810195
15729814895
15729819472
15729825149
15729830031
15729836013
15729841018
15729848830
15729853103
15729859694
15729864821
15729869765
15729877272
15729883132
15729889357
15729894179
15729899794
15729906081
15729910842
15729917433
15729922866
15729928054
15729934889
15729941237
15729944899
15729951979
15729957594
15729962905
15729969557
15729974745
15729979689
15729986464
15729992690
15729998305
15730003371
15730009169
15730015700
15730019850
15730026259
15730032057
15730037917
15730044142
15730049208
15730054274
15730059340
15730065443
15730070692
15730079359
15730084303
15730089247
15730094740
15730100966
15730106398
15730113600
15730119826
15730124952
15730131666
15730134901
15730140822
15730147413
15730153944
15730159987
15730164991
15730172194
15730177382
15730183912
15730190077
15730196791
15730202223
15730207228
15730213819
15730219984
15730227613
15730232923
15730241224
15730246229
15730251051
15730255934
15730261732
15730267591
15730273084
15730280409
15730289259
15730296583
15730300672
15730308973
15730315809
15730323988
15730330579
15730339918
15730346754
15730354688
15730361951
15730370862
15730377637
15730383680
15730393018
15730399122
15730408216
15730415052
15730422986
15730430860
15730438306
15730445447
15730452894
15730460401
15730468274
15730476880
15730484632
15730491223
15730499951
15730509290
15730518140
15730525403
15730533399
15730540662
15730548047
15730555982
15730565015
15730572461
15730581677
15730589063
15730598401
15730606335
15730612805
15730620923
15730629773
15730638440
15730646130
15730654248
15730662793
15730671094
15730679150
15730684338
15730691968
15730701794
15730711072
15730719189
15730723034
15730732068
15730739392
15730748242
15730756115
15730765332
15730772595
15730781262
15730788586
15730808728
15730815930
15730823681
15730834057
15730843395
15730850903
15730858898
15730867809
15730874340
15730885876
15730894543
15730901867
15730912792
15730921642
15730927807
15730936596
15730945324
15730953381
15730962414
15730970837
15730980846
15730991955
15731002270
15731011608
15731018871
15731026134
15731036266
15731044079
15731051220
15731059154
15731066234
15731073742
15731083446
15731089000
15731096569
15731104991
15731112560
15731119945
15731127757
15731135509
15731143199
15731151317
15731159374
15731167186
15731174632
15731182445
15731190563
15731198497
15731206371
15731213268
15731220897
15731229625
15731237132
15731243846
15731252086
15731260570
15731268077
15731274119
15731280833
15731287730
15731296947
15731306346
15731312694
15731319591
15731328135
15731337474
15731344493
15731351268
15731361399
15731367686
15731374278
15731381175
15731389476
15731398814
15731405345
15731412242
15731420237
15731427561
15731437449
15731445262
15731453745
15731460948
15731467967
15731475718
15731483958
15731492014
15731500071
15731509348
15731516856
15731524973
15731532175
15731540354
15731550120
15731555369
15731564951
15731572153
15731579478
15731587656
15731597300
15731604380
15731611582
15731621042
15731628244
15731634226
15731643320
15731649729
15731657785
15731664072
15731669138
15731674204
15731680857
15731685251
15731691843
15731696848
15731700693
15731706186
15731712656
15731717905
15731724375
15731729746
15731735849
15731742624
15731748667
15731754099
15731760629
15731765756
15731775278
15731780893
15731787180
15731793771
15731800424
15731804880
15731809579
15731814951
15731821298
15731825998
15731830820
15731835336
15731841501
15731845468
15731852365
15731857431
15731862863
15731867685
15731873300
15731879342
15731884347
15731889047
15731894540
15731899667
15731906625
15731911691
15731917734
15731923837
15731929513
15731933969
15731939767
15731945443
15731952462
15731956918
15731962594
15731967965
15731973703
15731979257
15731985116
15731990121
15731995919
15732001229
15732006478
15732012521
15732018502
15732023324
15732029550
15732035653
15732041329
15732046334
15732052194
15732058785
15732064645
15732069222
15732074838
15732080697
15732087228
15732093636
15732097054
15732104134
15732108956
15732114449
15732119454
15732125130
15732132882
15732140145
15732145028
15732151070
15732157540
15732163399
15732168770
15732174569
15732181100
15732187447
15732192940
15732199227
15732205330
15732210702
15732216439
15732221810
15732228280
15732235299
15732243905
15732249947
15732256173
15732261300
15732268746
15732275032
15732279000
15732287728
15732298043
15732303414
15732309883
15732314827
15732320503
15732325936
15732333077
15732339546
15732349007
15732354195
15732360787
15732366280
15732372383
15732379341
15732384773
15732390266
15732397041
15732401802
15732406563
15732411385
15732416328
15732422127
15732427864
15732433418
15732438911
15732445076
15732450752
15732455696
15732461006
15732465462
15732470100
15732476936
15732482734
15732487800
15732492378
15732497017
15732503181
15732508430
15732513740
15732518501
15732525154
15732531257
15732535774
15732540840
15732547371
15732552498
15732557197
15732562446
15732569831
15732574470
15732579109
15732584480
15732590339
15732596443
15732601875
15732608467
15732616218
15732620857
15732627632
15732633369
15732638740
15732644416
15732650215
15732655280
15732660652
15732667487
15732674445
15732679939
15732684760
15732690498
15732695991
15732701972
15732707160
15732713142
15732718635
15732723945
15732729621
15732736213
15732741767
15732746345
15732751960
15732757392
15732763557
15732768928
15732774421
15732780341
15732786201
15732791572
15732796699
15732801887
15732808967
15732814704
15732818976
15732824775
15732831427
15732835944
15732843207
15732851691
15732859443
15732867682
15732872138
15732881171
15732888739
15732898993
15732906317
15732914191
15732923712
15732931830
15732939948
15732948004
15732956854
15732965399
15732974432
15732981818
15732994025
15733003180
15733013129
15733021979
15733030096
15733038519
15733047858
15733055792
15733064093
15733072333
15733080694
15733087774
15733095953
15733100348
15733111822
15733120123
15733128241
15733137091
15733145330
15733152777
15733160894
15733168158
15733175726
15733185736
15733193792
15733201300
15733211004
15733218633
15733227178
15733234564
15733243109
15733251226
15733257879
15733266180
15733276128
15733284490
15733292059
15733300298
15733307989
15733316106
15733324590
15733333196
15733339727
15733346563
15733353399
15733362127
15733369756
15733378057
15733385381
15733392644
15733403386
15733411931
15733419378
15733426519
15733434575
15733443731
15733452214
15733458928
15733467046
15733474736
15733483647
15733492986
15733498235
15733507939
15733515691
15733523808
15733531804
15733539922
15733549993
15733557561
15733565495
15733572942
15733580998
15733589116
15733597356
15733605901
15733614568
15733622624
15733629521
15733637700
15733647221
15733653569
15733663396
15733668522
15733678349
15733687504
15733695256
15733702519
15733710392
15733719670
15733727055
15733734135
15733742741
15733749638
15733760014
15733767765
15733776554
15733783940
15733792301
15733799015
15733807560
15733818485
15733829350
15733838383
15733847172
15733855778
15733864201
15733870915
15733879032
15733886784
15733898563
15733904606
15733913944
15733919559
15733929020
15733935184
15733942936
15733950748
15733960697
15733966495
15733975956
15733982975
15733990360
15733997623
15734006046
15734013553
15734022464
15734030277
15734037845
15734046512
15734054691
15734061405
15734068790
15734078739
15734086490
15734094852
15734100772
15734108768
15734116641
15734125125
15734132633
15734139713
15734147647
15734155460
15734163577
15734169742
15734176334
15734185794
15734192447
15734199344
15734206973
15734216067
15734223270
15734230594
15734240604
15734248233
15734255374
15734263431
15734271548
15734281741
15734285586
15734291934
15734300662
15734306155
15734310550
15734318118
15734323550
15734328921
15734334109
15734339969
15734344912
15734352786
15734358340
15734364077
15734370486
15734375979
15734381716
15734387576
15734393008
15734398257
15734403445
15734408633
15734411624
15734419680
15734427249
15734432986
15734440371
15734445803
15734448428
15734456667
15734459597
15734467410
15734472414
15734478945
15734483950
15734488894
15734494387
15734501467
15734506655
15734512698
15734520388
15734524172
15734531679
15734538027
15734544802
15734549807
15734555422
15734561953
15734568300
15734575503
15734581301
15734584170
15734591005
15734597292
15734601626
15734607851
15734613283
15734618898
15734624331
15734629519
15734634768
15734640627
15734645754
15734651064
15734654726
15734661989
15734667787
15734672670
15734677248
15734681948
15734687746
15734692995
15734700014
15734704775
15734710695
15734715761
15734721559
15734727114
15734732057
15734737734
15734745729
15734752321
15734758119
15734762209
15734768861
15734773195
15734781191
15734787538
15734790651
15734798952
15734803896
15734808839
15734814394
15734820802
15734828432
15734833925
15734839845
15734846803
15734851808
15734856874
15734862550
15734868165
15734874452
15734879579
15734885194
15734891298
15734896913
15734902101
15734908449
15734914125
15734919740
15734924989
15734930238
15734935609
15734943666
15734949403
15734956117
15734961122
15734965760
15734971559
15734978273
15734983949
15734989747
15734995301
15735001466
15735008119
15735017640
15735023622
15735028321
15735033753
15735040833
15735046876
15735052857
15735059266
15735064271
15735069764
15735075440
15735081300
15735088075
15735094788
15735101319
15735106263
15735112427
15735117188
15735123170
15735128113
15735134827
15735142213
15735149903
15735156190
15735162720
15735171998
15735178773
15735184815
15735189026
15735196473
15735203614
15735208680
15735213868
15735219178
15735228638
15735233643
15735239746
15735244019
15735250061
15735254883
15735259888
15735263977
15735270081
15735274903
15735280213
15735285523
15735292420
15735299011
15735304505
15735309326
15735314575
15735319153
15735324341
15735331360
15735339905
15735345886
15735351196
15735357483
15735363220
15735369934
15735375549
15735380981
15735386292
15735391174
15735396240
15735400696
15735406250
15735412170
15735417480
15735423279
15735426697
15735433411
15735438476
15735442993
15735447632
15735454346
15735459839
15735465149
15735471802
15735477295
15735482788
15735493530
15735500549
15735508423
15735515686
15735524292
15735533020
15735541992
15735549194
15735557861
15735564941
15735572326
15735582031
15735588928
15735596679
15735604858
15735612121
15735619384
15735627807
15735635681
15735643981
15735653198
15735659728
15735669433
15735677734
15735684875
15735692870
15735700439
15735708923
15735715697
15735722777
15735732909
15735740172
15735747680
15735756103
15735763732
15735771483
15735779418
15735786376
15735796447
15735803283
15735811889
15735819579
15735827697
15735837828
15735848754
15735857482
15735864928
15735877989
15735882506
15735893431
15735902770
15735912230
15735916869
15735927611
15735934569
15735942015
15735951903
15735956908
15735967223
15735974608
15735982054
15735990782
15735997374
15736006285
15736013670
15736020994
15736030821
15736036009
15736045347
15736051390
15736059202
15736069212
15736075987
15736082029
15736091429
15736097593
15736105101
15736112913
15736121153
15736128477
15736136534
15736144285
15736151915
15736159178
15736166685
15736174070
15736182310
15736191465
15736199278
15736206785
15736214903
15736222715
15736227537
15736236814
15736244993
15736252622
15736259885
15736269468
15736277952
15736288572
15736295896
15736303342
15736310300
15736318540
15736328611
15736336240
15736342954
15736351194
15736359800
15736368589
15736376279
15736384641
15736388913
15736399961
15736408506
15736415769
15736424131
15736432431
15736439939
15736449277
15736457639
15736465390
15736473630
15736480588
15736490781
15736497495
15736506223
15736514523
15736522702
15736531247
15736539487
15736546811
15736555112
15736563107
15736571408
15736579037
15736586240
15736593991
15736604611
15736612179
15736619565
15736627316
15736637387
15736645871
15736655087
15736664242
15736674374
15736685238
15736692441
15736703549
15736713681
15736722470
15736729611
15736744686
15736752194
15736759762
15736767514
15736775265
15736782467
15736789852
15736798092
15736805538
15736812557
15736821774
15736827816
15736835262
15736842770
15736850765
15736859921
15736868160
15736876949
15736884762
15736892208
15736898556
15736903866
15736909054
15736914120
15736920406
15736925411
15736930721
15736936642
15736941768
15736946407
15736951839
15736958126
15736963924
15736969723
15736974849
15736977779
15736983883
15736988949
15736995296
15737000667
15737006893
15737012020
15737018795
15737024410
15737028804
15737034481
15737040340
15737046199
15737051570
15737057125
15737062313
15737068477
15737075557
15737081111
15737084529
15737091243
15737096553
15737104610
15737109554
15737115718
15737120784
15737127315
15737132747
15737137935
15737143611
15737149287
15737156795
15737161250
15737166866
15737172969
15737179256
15737184871
15737190547
15737195186
15737200984
15737206966
15737213313
15737218867
15737223933
15737229793
15737236629
15737242183
15737248164
15737253291
15737258113
15737263850
15737270686
15737276118
15737282649
15737288936
15737294551
15737300776
15737305842
15737312312
15737318538
15737325251
15737331355
15737336238
15737344172
15737351741
15737360835
15737366511
15737371516
15737377680
15737385005
15737390315
15737396296
15737402766
15737408320
15737413996
15737419306
15737424677
15737430476
15737435725
15737440424
15737446711
15737452448
15737458003
15737463190
15737468989
15737473689
15737478205
15737484980
15737490290
15737494685
15737499201
15737506098
15737511286
15737516352
15737521601
15737526789
15737533137
15737539911
15737544794
15737550348
15737555475
15737562555
15737567072
15737572931
15737578547
15737584345
15737589899
15737595514
15737600824
15737606867
15737613215
15737616755
15737624140
15737631464
15737636896
15737642145
15737647882
15737653315
15737658502
15737665277
15737670648
15737676996
15737682611
15737687372
15737694330
15737699274
15737705438
15737710382
15737716486
15737721796
15737728388
15737734003
15737738886
15737744074
15737749689
15737755121
15737762201
15737768121
15737775507
15737781061
15737788324
15737793512
15737798456
15737803949
15737809259
15737815179
15737822015
15737827875
15737833124
15737838617
15737844110
15737850274
15737855707
15737861749
15737868341
15737878656
15737888971
15737898736
15737904168
15737908502
15737914605
15737921258
15737926751
15737937555
15737944574
15737948724
15737955499
15737962762
15737968011
15737973809
15737979608
15737986810
15737993096
15737998528
15738003106
15738008233
15738013482
15738018548
15738023370
15738031121
15738036431
15738039727
15738046441
15738052117
15738057855
15738062981
15738068414
15738073968
15738078912
15738083367
15738089837
15738094598
15738101617
15738111260
15738115349
15738124688
15738131707
15738141595
15738149590
15738157342
15738167290
15738173638
15738181878
15738190239
15738198479
15738205742
15738214043
15738222100
15738230584
15738238457
15738243645
15738254082
15738262749
15738271172
15738279289
15738286675
15738294060
15738301384
15738309563
15738316887
15738328117
15738335869
15738343010
15738350334
15738358452
15738369072
15738375847
15738383903
15738391899
15738402031
15738408501
15738416862
15738425041
15738433708
15738442924
15738451042
15738457634
15738465446
15738473808
15738482109
15738489799
15738497856
15738505546
15738515434
15738524467
15738534233
15738543937
15738556938
15738567070
15738575065
15738582572
15738591789
15738603813
15738609306
15738617912
15738625297
15738632438
15738640006
15738647941
15738655692
15738662711
15738670768
15738680350
15738688163
15738697623
15738706840
15738714103
15738722220
15738733512
15738740287
15738749259
15738757560
15738765738
15738773795
15738781058
15738789969
15738797660
15738805716
15738812980
15738819632
15738828910
15738836844
15738844046
15738850699
15738857657
15738865714
15738874991
15738881644
15738889029
15738897391
15738904471
15738913748
15738920706
15738929251
15738936148
15738944205
15738951102
15738957388
15738965384
15738974539
15738981741
15738988211
15738997549
15739004019
15739013357
15739019034
15739028982
15739034842
15739042654
15739051321
15739059500
15739068594
15739075186
15739088492
15739099356
15739110281
15739120535
15739130972
15739138967
15739146414
15739154104
15739159902
15739169607
15739175039
15739184683
15739192068
15739202078
15739210562
15739218008
15739225088
15739233083
15739240530
15739249075
15739257497
15739265615
15739272939
15739281728
15739288991
15739297231
15739305654
15739314260
15739321767
15739328908
15739336355
15739346120
15739354055
15739362172
15739369558
15739376149
15739384939
15739393789
15739402028
15739409475
15739417775
15739425710
15739433828
15739440908
15739448110
15739460134
15739469838
15739478017
15739483510
15739490956
15739502065
15739509084
15739516957
15739525319
15739534413
15739541371
15739545949
15739553395
15739558583
15739565053
15739571706
15739578236
15739584706
15739590749
15739596669
15739601857
15739606984
15739612233
15739617604
15739622243
15739626454
15739632558
15739638112
15739643239
15739647694
15739653187
15739658803
15739663563
15739668629
15739675221
15739680897
15739686146
15739691822
15739697316
15739702992
15739708668
15739713978
15739722157
15739728016
15739733509
15739739979
15739745594
15739749501
15739755299
15739761463
15739766957
15739771168
15739775868
15739782032
15739787098
15739792591
15739797779
15739804554
15739810780
15739816578
15739822132
15739827320
15739831898
15739838368
15739841785
15739848438
15739854115
15739860584
15739867298
15739874927
15739880482
15739887989
15739895374
15739899891
15739905567
15739909656
15739914478
15739919727
15739924549
15739929310
15739933826
15739938831
15739943043
15739948414
15739952625
15739956959
15739961658
15739966114
15739971180
15739976062
15739981373
15739984424
15739991382
15739996082
15740000538
15740005237
15740011402
15740016590
15740020862
15740025013
15740031238
15740036365
15740041492
15740046680
15740051502
15740057239
15740062671
15740069324
15740073657
15740079456
15740085803
15740091113
15740097644
15740103992
15740108997
15740114063
15740120105
15740125354
15740130725
15740135669
15740140125
15740145923
15740149890
15740156055
15740160388
15740166003
15740169849
15740176013
15740181506
15740186572
15740192493
15740197192
15740201831
15740208118
15740213489
15740218249
15740223010
15740229419
15740234057
15740239123
15740245959
15740251147
15740255542
15740260852
15740267077
15740272754
15740278308
15740283984
15740288867
15740293994
15740299548
15740305224
15740312365
15740318225
15740324328
15740329882
15740335192
15740340441
15740345813
15740351000
15740355578
15740361682
15740367663
15740372973
15740377429
15740382189
15740388598
15740393298
15740400012
15740405749
15740409777
15740414111
15740420702
15740425707
15740430468
15740435351
15740442858
15740449267
15740455553
15740461535
15740466357
15740472338
15740479296
15740485277
15740489916
15740497607
15740502978
15740508227
15740513170
15740518664
15740526415
15740534777
15740545336
15740550402
15740554857
15740561388
15740565783
15740570971
15740576708
15740581896
15740588488
15740594042
15740598681
15740605272
15740609850
15740615038
15740619921
15740626390
15740634020
15740643358
15740651903
15740659532
15740666490
15740675463
15740683702
15740692858
15740702562
15740711412
15740719591
15740728380
15740735704
15740743150
15740750963
15740758531
15740765550
15740773424
15740780809
15740788316
15740797288
15740804857
15740813158
15740818101
15740827562
15740834764
15740842637
15740851121
15740858445
15740868211
15740875779
15740883226
15740891526
15740899705
15740908250
15740915452
15740925401
15740931504
15740939805
15740948045
15740956040
15740964402
15740972642
15740980332
15740988572
15740992845
15741001756
15741009202
15741017991
15741025803
15741036851
15741044236
15741052537
15741060227
15741067979
15741074631
15741082871
15741089951
15741097459
15741108079
15741114243
15741122239
15741129441
15741138230
15741146042
15741153489
15741160691
15741169724
15741176133
15741182847
15741189377
15741196518
15741205185
15741211838
15741218796
15741225937
15741233567
15741241196
15741248337
15741257065
15741264755
15741272568
15741281723
15741287827
15741296250
15741301987
15741309982
15741318405
15741327194
15741335068
15741341721
15741350204
15741360275
15741369675
15741377060
15741384262
15741392929
15741397995
15741408127
15741416672
15741424606
15741433212
15741439804
15741453048
15741462082
15741469223
15741477646
15741490585
15741498703
15741505905
15741514938
15741522201
15741531784
15741539352
15741546249
15741552780
15741562423
15741568466
15741578109
15741584762
15741592330
15741599044
15741608688
15741615096
15741622421
15741630416
15741637801
15741645370
15741653060
15741661544
15741669479
15741676131
15741683334
15741691512
15741696212
15741703048
15741711654
15741718673
15741728072
15741737288
15741744552
15741751876
15741758651
15741765426
15741772628
15741781722
15741788497
15741795211
15741802596
15741809737
15741819747
15741826888
15741832137
15741841536
15741848067
15741855513
15741862105
15741872359
15741879439
15741887435
15741894820
15741902998
15741911726
15741918623
15741926863
15741935347
15741939864
15741951033
15741959578
15741964827
15741973128
15741981795
15741991377
15741999312
15742007002
15742014876
15742020491
15742024397
15742030806
15742038313
15742043867
15742048262
15742053816
15742059431
15742065779
15742071211
15742075483
15742081221
15742088179
15742092878
15742097639
15742103621
15742109480
15742114485
15742120222
15742125959
15742131636
15742137556
15742143598
15742148725
15742153730
15742159101
15742164778
15742171003
15742176679
15742183210
15742192487
15742195478
15742204694
15742210615
15742217329
15742222883
15742232282
15742236799
15742242109
15742246442
15742251386
15742255964
15742260786
15742265668
15742271589
15742274824
15742280622
15742284589
15742289045
15742293439
15742301374
15742306440
15742310956
15742314252
15742318342
15742323224
15742327680
15742332441
15742340192
15742350385
15742355756
15742361554
15742366620
15742371564
15742376813
15742382123
15742387433
15742393171
15742398297
15742403913
15742409711
15742415265
15742420758
15742427594
15742432355
15742437909
15742443036
15742449018
15742455060
15742460431
15742465619
15742471112
15742477826
15742481976
15742487836
15742492719
15742498761
15742502240
15742507245
15742514386
15742519513
15742524274
15742530316
15742534589
15742540204
15742546735
15742551556
15742557050
15742565533
15742573102
15742581586
15742589947
15742598553
15742606427
15742614422
15742619855
15742626690
15742634259
15742639691
15742644757
15742651410
15742656659
15742664410
15742671246
15742675946
15742682721
15742688397
15742694439
15742700787
15742705670
15742711773
15742718853
15742725872
15742729718
15742735150
15742742352
15742749432
15742755779
15742763287
15742770367
15742777508
15742783856
15742789776
15742796551
15742803143
15742810345
15742816387
15742821697
15742826092
15742833538
15742838604
15742843975
15742849407
15742854839
15742861187
15742866497
15742874126
15742878155
15742884746
15742889934
15742895916
15742901592
15742907879
15742914837
15742920757
15742926433
15742931438
15742934978
15742942058
15742948406
15742951763
15742959392
15742965923
15742970745
15742976238
15742982097
15742988811
15742993023
15743000225
15743006450
15743012554
15743018291
15743024700
15743030986
15743037151
15743041667
15743047588
15743051128
15743060710
15743066142
15743071941
15743077800
15743083171
15743089275
15743096965
15743102397
15743108257
15743114360
15743122600
15743131511
15743139507
15743149516
15743157634
15743163432
15743170146
15743176555
15743180827
15743187663
15743193950
15743200053
15743204143
15743214458
15743218852
15743229106
15743236796
15743245219
15743253581
15743260661
15743268901
15743275431
15743283122
15743291362
15743299418
15743308024
15743315226
15743323161
15743330851
15743337870
15743346964
15743354106
15743361796
15743367289
15743376994
15743384562
15743391032
15743399210
15743408549
15743414652
15743422404
15743431010
15743438761
15743447184
15743456583
15743464762
15743468973
15743477701
15743485209
15743494181
15743503153
15743509684
15743515909
15743522379
15743530924
15743537150
15743545206
15743553446
15743558939
15743565348
15743571573
15743580301
15743587015
15743594889
15743600870
15743607279
15743616251
15743623270
15743629984
15743636331
15743643289
15743649637
15743658243
15743664957
15743673380
15743680582
15743687967
15743695230
15743702188
15743708475
15743715372
15743722147
15743729532
15743738321
15743745767
15743751871
15743759256
15743766031
15743772073
15743780313
15743786844
15743793191
15743800577
15743807352
15743816507
15743823037
15743828409
15743837137
15743844278
15743850442
15743857156
15743864541
15743872354
15743879068
15743885110
15743894387
15743900430
15743909890
15743916055
15743923684
15743932595
15743940408
15743948281
15743955789
15743962136
15743970498
15743977883
15743985452
15743991860
15743999001
15744006020
15744016030
15744022561
15744030007
15744039773
15744044472
15744053567
15744060158
15744067361
15744074807
15744082314
15744090432
15744098122
15744107094
15744115212
15744122048
15744129677
15744136513
15744144387
15744152932
15744160988
15744165017
15744173195
15744179970
15744189614
15744196633
15744205727
15744212624
15744219826
15744227272
15744236061
15744242470
15744250710
15744257546
15744265053
15744271218
15744278908
15744286903
15744292763
15744301918
15744308022
15744314369
15744321022
15744329323
15744336647
15744345497
15744351601
15744358009
15744364418
15744370766
15744379555
15744386085
15744395119
15744401893
15744409096
15744415809
15744423073
15744431862
15744436500
15744445167
15744451820
15744461097
15744467994
15744474342
15744482154
15744488929
15744495399
15744502113
15744509925
15744517738
15744526405
15744534095
15744540321
15744547279
15744553749
15744560890
15744569251
15744576209
15744584083
15744591468
15744598426
15744613197
15744629676
15744642738
15744651405
15744660438
15744665809
15744671119
15744675941
15744681617
15744686805
15744694922
15744700355
15744706031
15744711280
15744716285
15744722144
15744727393
15744734168
15744741126
15744746375
15744752540
15744757850
15744762061
15744766700
15744771827
15744779639
15744786963
15744792640
15744797461
15744801978
15744808570
15744815711
15744821814
15744828162
15744833472
15744839453
15744844336
15744849280
15744855994
15744860632
15744865088
15744872962
15744878760
15744883948
15744888953
15744893164
15744898352
15744905982
15744911169
15744915808
15744919653
15744926489
15744931250
15744936621
15744940588
15744945105
15744951453
15744956335
15744960974
15744965857
15744971350
15744979468
15744984167
15744989905
15744994116
15745000769
15745004858
15745008764
15745013464
15745018896
15745022986
15745027441
15745035559
15745042395
15745047461
15745052466
15745058142
15745063635
15745068884
15745074316
15745080297
15745085363
15745090551
15745096228
15745101232
15745106054
15745111792
15745116613
15745122351
15745127050
15745132665
15745139318
15745144506
15745149511
15745154943
15745162084
15745167333
15745172399
15745176794
15745184423
15745189367
15745194982
15745200536
15745206396
15745212499
15745217992
15745223180
15745228674
15745235937
15745242101
15745246435
15745252111
15745259008
15745265905
15745271459
15745277257
15745281652
15745286657
15745293249
15745298742
15745304174
15745309972
15745317296
15745322851
15745328344
15745333349
15745338903
15745345800
15745352025
15745357641
15745363805
15745370763
15745376439
15745380895
15745386632
15745392553
15745398595
15745404821
15745408422
15745413610
15745419652
15745426854
15745431981
15745437169
15745443395
15745451634
15745457921
15745464391
15745473546
15745479039
15745485021
15745490147
15745494847
15745502416
15745508458
15745513707
15745520360
15745525121
15745529820
15745534947
15745541661
15745546727
15745551671
15745558812
15745563328
15745568516
15745573155
15745579564
15745583836
15745589696
15745596837
15745602513
15745607091
15745612645
15745618260
15745623570
15745628941
15745634007
15745639256
15745644566
15745649693
15745656163
15745660984
15745667149
15745673558
15745676915
15745684849
15745691014
15745695408
15745700413
15745705418
15745712315
15745717930
15745724461
15745729588
15745735569
15745740940
15745746128
15745751866
15745758091
15745763706
15745769444
15745775303
15745782871
15745791660
15745796604
15745802219
15745807529
15745813267
15745819553
15745825352
15745831943
15745838230
15745844273
15745850254
15745855503
15745861179
15745867161
15745873142
15745879673
15745886020
15745892185
15745897678
15745902683
15745907566
15745912815
15745919040
15745924412
15745933384
15745938999
15745944126
15745950718
15745956638
15745963108
15745966709
15745977695
15745984287
15745992160
15745997348
15746002841
15746008518
15746014011
15746019870
15746025913
15746033847
15746039829
15746047641
15746053134
15746058139
15746065830
15746071018
15746075534
15746083469
15746089328
15746094394
15746099948
15746105808
15746112033
15746117099
15746124667
15746130771
15746135715
15746141391
15746146335
15746150790
15746156894
15746162326
15746167209
15746173312
15746178073
15746183139
15746189914
15746193942
15746200595
15746207126
15746212619
15746217746
15746222690
15746229953
15746234897
15746239108
15746245883
15746251132
15746258273
15746263156
15746268039
15746273288
15746277987
15746284335
15746290194
15746295687
15746302157
15746307162
15746314425
15746318026
15746325045
15746330111
15746335360
15746344210
15746349764
15746355013
15746360262
15746366793
15746372042
15746378146
15746383700
15746391024
15746397799
15746403536
15746409701
15746415499
15746420992
15746426669
15746433382
15746440462
15746446200
15746451876
15746456698
15746462313
15746468722
15746474581
15746481417
15746487459
15746492953
15746498629
15746505037
15746510775
15746516268
15746521761
15746526644
15746534700
15746539217
15746544832
15746551363
15746557344
15746560335
15746567293
15746573153
15746581575
15746587923
15746593538
15746598177
15746606233
15746615267
15746623812
15746632479
15746641634
15746650057
15746657381
15746665254
15746670503
15746677889
15746684053
15746692293
15746698152
15746703645
15746708894
15746713716
15746718599
15746726167
15746731355
15746737276
15746743684
15746748872
15746753999
15746760591
15746765840
15746771028
15746776338
15746782625
15746788667
15746794099
15746799959
15746805452
15746811738
15746817476
15746823274
15746829377
15746835786
15746841523
15746846528
15746852082
15746858308
15746863984
15746870332
15746876496
15746882539
15746887361
15746892854
15746899934
15746904634
15746910066
15746916841
15746922761
15746928071
15746933747
15746938752
15746943330
15746949983
15746957063
15746962129
15746968232
15746975007
15746980439
15746986115
15746991303
15746996735
15747004609
15747009919
15747018037
15747026276
15747034089
15747041169
15747048127
15747054047
15747061066
15747066682
15747072236
15747077485
15747082551
15747088044
15747094819
15747101410
15747107758
15747114411
15747118805
15747125519
15747130951
15747134980
15747144318
15747149506
15747155182
15747160248
15747165558
15747172394
15747178070
15747183808
15747189484
15747194733
15747201630
15747206818
15747212433
15747220612
15747227631
15747233917
15747241608
15747247040
15747253693
15747260040
15747266510
15747271210
15747275971
15747285797
15747292206
15747297821
15747302948
15747308868
15747315216
15747321320
15747327911
15747335236
15747340790
15747346344
15747352753
15747358612
15747363495
15747368500
15747375458
15747387604
15747394012
15747399505
15747405365
15747410980
15747416534
15747422271
15747428802
15747435089
15747440094
15747445831
15747451629
15747457122
15747463287
15747469024
15747474639
15747480804
15747486724
15747492340
15747498016
15747505035
15747510772
15747516571
15747522247
15747529266
15747535125
15747540923
15747547210
15747554168
15747560699
15747566497
15747573516
15747579376
15747584197
15747590179
15747596221
15747602081
15747608184
15747613799
15747618926
15747626067
15747633514
15747639190
15747643645
15747649200
15747655486
15747661162
15747667388
15747673247
15747679656
15747685393
15747692046
15747697844
15747702910
15747708587
15747714629
15747723662
15747729216
15747735198
15747741179
15747748137
15747753508
15747759429
15747764678
15747770171
15747776763
15747782439
15747787932
15747793730
15747798979
15747804595
15747811186
15747816680
15747823638
15747831267
15747838469
15747845854
15747851775
15747858428
15747864287
15747872160
15747877654
15747882781
15747888335
15747893950
15747901396
15747907561
15747913420
15747918364
15747925200
15747929716
15747934843
15747941313
15747947050
15747952971
15747959868
15747965117
15747970854
15747977324
15747983183
15747988554
15747994291
15747999663
15748005827
15748012907
15748018644
15748023649
15748029265
15748035124
15748040678
15748045256
15748053068
15748058134
15748063261
15748069914
15748075712
15748080534
15748085539
15748092558
15748100004
15748106047
15748111723
15748117277
15748122831
15748128019
15748133756
15748138456
15748147550
15748153715
15748157255
15748162626
15748168607
15748173673
15748180326
15748187162
15748194303
15748199613
15748205412
15748210966
15748216581
15748222379
15748227628
15748234403
15748240446
15748245878
15748252470
15748257657
15748262540
15748271024
15748276273
15748285367
15748289884
15748295499
15748301053
15748306913
15748313443
15748318754
15748324430
15748331876
15748337674
15748342801
15748349027
15748354459
15748360013
15748365750
15748372464
15748379911
15748386380
15748391812
15748398282
15748403775
15748409757
15748419278
15748426602
15748430997
15748438016
15748444241
15748451261
15748456693
15748462247
15748469571
15748476773
15748482449
15748488919
15748494046
15748499844
15748505093
15748511990
15748517300
15748525296
15748529385
15748535245
15748541043
15748546841
15748554166
15748559842
15748565091
15748570035
15748577664
15748583951
15748589139
15748594388
15748600003
15748605496
15748611233
15748617337
15748624661
15748629055
15748636380
15748640774
15748646328
15748651760
15748658963
15748664517
15748672146
15748677578
15748682705
15748687832
15748694790
15748699856
15748705105
15748711087
15748719082
15748724941
15748730190
15748737271
15748742520
15748747891
15748753628
15748759365
15748766689
15748772671
15748778042
15748783779
15748790127
15748795742
15748801418
15748806728
15748814846
15748819851
15748826748
15748831753
15748837490
15748842556
15748848415
15748855190
15748861111
15748867153
15748872951
15748878383
15748884060
15748890346
15748896206
15748901088
15748908657
15748914516
15748920314
15748926113
15748931850
15748937221
15748942775
15748947841
15748955288
15748961635
15748967739
15748973659
15748980129
15748985195
15748991542
15748998561
15749004848
15749013027
15749020778
15749028835
15749034938
15749040187
15749046291
15749053920
15749061488
15749066921
15749072597
15749079555
15749085536
15749091274
15749097011
15749103542
15749109706
15749116298
15749124293
15749132228
15749140407
15749145961
15749151637
15749157496
15749163722
15749169215
15749176234
15749181666
15749187526
15749193141
15749198756
15749205409
15749211329
15749217555
15749223475
15749229518
15749235255
15749241114
15749245326
15749251735
15749259425
15749264857
15749270594
15749276637
15749282313
15749287135
15749292750
15749299342
15749306727
15749311671
15749317469
15749323573
15749330165
15749338893
15749347254
15749356593
15749365748
15749373438
15749376795
15749383509
15749388453
15749394007
15749400355
15749407801
15749413050
15749419886
15749424586
15749429896
15749435023
15749441920
15749448389
15749453516
15749460474
15749465418
15749470362
15749476832
15749482081
15749488978
15749495386
15749502039
15749507288
15749513208
15749518091
15749523096
15749528528
15749536341
15749543177
15749549585
15749554590
15749559900
15749565760
15749570948
15749576990
15749582544
15749589685
15749595362
15749600305
15749605188
15749613184
15749619959
15749630945
15749637964
15749641687
15749649194
15749654871
15749661951
15749667627
15749673425
15749681970
15749686182
15749692957
15749697595
15749703455
15749709436
15749714929
15749722009
15749728479
15749734888
15749740747
15749746911
15749752710
15749757593
15749763147
15749769006
15749777124
15749782434
15749788171
15749794641
15749800073
15749805444
15749811120
15749816491
15749822595
15749830041
15749834314
15749841088
15749846643
15749851525
15749857263
15749862634
15749870935
15749876794
15749882531
15749887536
15749893579
15749899682
15749905297
15749910668
15749919213
15749924523
15749930383
15749937097
15749942834
15749948693
15749954797
15749961450
15749967797
15749974206
15749980492
15749985802
15749991723
15749997155
15750002831
15750009240
15750015404
15750021996
15750027672
15750032433
15750037987
15750044640
15750050561
15750056481
15750065819
15750073144
15750079247
15750085351
15750091454
15750096642
15750102318
15750109337
15750115746
15750121239
15750126915
15750132286
15750138024
15750144432
15750150109
15750156395
15750162438
15750167748
15750173424
15750178673
15750184593
15750191368
15750197106
15750203453
15750209557
15750215172
15750222740
15750232811
15750239525
15750246056
15750250939
15750258873
15750268333
15750272972
15750278099
15750283897
15750289146
15750294701
15750300194
15750306602
15750312706
15750317955
15750325157
15750329063
15750336082
15750341759
15750347435
15750353416
15750359581
15750366966
15750372154
15750377037
15750382591
15750387474
15750394615
15750399254
15750406700
15750411461
15750418907
15750423179
15750430626
15750435814
15750441795
15750446922
15750454612
15750458885
15750466087
15750471702
15750477500
15750481956
15750487632
15750495811
15750501304
15750506187
15750513450
15750518760
15750525352
15750530113
15750534995
15750541099
15750548667
15750553794
15750559409
15750564964
15750570152
15750575462
15750581565
15750589194
15750594932
15750601401
15750605735
15750611472
15750618735
15750624168
15750631614
15750636802
15750642661
15750649558
15750655234
15750663108
15750667502
15750674521
15750680137
15750686240
15750691611
15750698081
15750705161
15750710959
15750717368
15750723716
15750730429
15750736350
15750742514
15750747580
15750755698
15750763449
15750767417
15750782981
15750789084
15750802329
15750811850
15750830466
15750840231
15750858237
15750872824
15750887106
15750903830
15750914877
15750927328
15750942709
15750950033
15750961325
15750970541
15750981833
15750990622
15751002218
15751008871
15751021505
15751028708
15751037191
15751045309
15751054708
15751062582
15751069479
15751078390
15751086569
15751095846
15751103903
15751110800
15751118795
15751126547
15751136312
15751141561
15751152181
15751162679
15751176839
15751184530
15751192342
15751195150
15751204855
15751212484
15751221700
15751229696
15751238058
15751245077
15751253683
15751260579
15751268514
15751275411
15751283956
15751293905
15751301961
15751309285
15751316488
15751326375
15751334432
15751343709
15751352864
15751361470
15751371114
15751379720
15751389180
15751398274
15751407552
15751417500
15751426778
15751435079
15751444051
15751451314
15751462361
15751471028
15751478902
15751490071
15751497090
15751504842
15751514180
15751522237
15751532368
15751541524
15751550374
15751558919
15751568623
15751576741
15751587727
15751594868
15751603901
15751614277
15751624226
15751633809
15751640583
15751650532
15751658955
15751667561
15751675129
15751684773
15751710163
15751718342
15751731159
15751742756
15751750874
15751758198
15751766804
15751774128
15751781818
15751790241
15751798969
15751806354
15751814228
15751822468
15751830463
15751839252
15751847126
15751856159
15751863849
15751870502
15751878132
15751886677
15751894062
15751902607
15751909992
15751917682
15751925617
15751932941
15751942890
15751949787
15751959919
15751966388
15751976093
15751984210
15751990985
15752000507
15752005451
15752015338
15752022418
15752030963
15752038043
15752047687
15752057758
15752065814
15752073505
15752081439
15752089984
15752097675
15752106891
15752114215
15752121966
15752129657
15752137713
15752145160
15752154132
15752161822
15752170306
15752176043
15752182574
15752187274
15752191668
15752196002
15752200213
15752204974
15752211078
15752215289
15752219622
15752224810
15752229205
15752233355
15752239215
15752246295
15752250689
15752255694
15752259845
15752264849
15752269000
15752274371
15752281268
15752286578
15752292254
15752295733
15752300372
15752303912
15752309405
15752313860
15752320452
15752325823
15752330340
15752335589
15752339800
15752345232
15752350543
15752360003
15752365984
15752371233
15752376727
15752383013
15752388079
15752392413
15752398577
15752403643
15752408465
15752413409
15752418413
15752422808
15752426836
15752432635
15752437578
15752442644
15752446429
15752451678
15752456133
15752460772
15752465899
15752471087
15752476336
15752480608
15752485125
15752489702
15752493914
15752499529
15752503740
15752509172
15752513262
15752518206
15752522173
15752527422
15752532305
15752536333
15752542681
15752547197
15752551714
15752555559
15752560015
15752564165
15752568071
15752573748
15752579729
15752584978
15752590044
15752595598
15752601457
15752606401
15752611162
15752616411
15752621843
15752626909
15752633379
15752638933
15752647234
15752651872
15752657854
15752666948
15752670671
15752677324
15752680925
15752688066
15752692827
15752697771
15752703264
15752711931
15752716020
15752723955
15752728593
15752735795
15752740983
15752744707
15752750078
15752756486
15752762895
15752767595
15752773332
15752779069
15752783159
15752789445
15752795854
15752801042
15752808915
15752814042
15752819535
15752824418
15752830461
15752836808
15752843095
15752849565
15752853837
15752859513
15752865373
15752873185
15752880387
15752887589
15752892900
15752899430
15752907914
15752915605
15752921403
15752926957
15752932023
15752936845
15752941117
15752945939
15752951554
15752956559
15752961808
15752967728
15752974381
15752980058
15752984513
15752989823
15752994401
15753000260
15753006852
15753010636
15753017472
15753022721
15753027115
15753031876
15753038712
15753042985
15753048539
15753055314
15753062089
15753067154
15753072281
15753077652
15753083573
15753090653
15753097367
15753103165
15753109696
15753114090
15753119950
15753126358
15753133194
15753139298
15753145157
15753151139
15753156388
15753162430
15753168473
15753173966
15753180069
15753184281
15753191788
15753196793
15753202835
15753208084
15753213761
15753220657
15753225784
15753231644
15753237747
15753244766
15753250748
15753254471
15753262039
15753266312
15753272354
15753278702
15753284073
15753289993
15753295181
15753301651
15753307754
