15685034492
15685039985
15685045356
15685051337
15685057929
15685064887
15685071418
15685077277
15685083442
15685089545
15685094672
15685099189
15685104743
15685109382
15685115424
15685120246
15685126838
15685133063
15685139472
15685145697
15685151801
15685157416
15685162909
15685169501
15685174628
15685181586
15685187629
15685193671
15685199225
15685206000
15685211554
15685218268
15685224127
15685230414
15685235968
15685241461
15685249396
15685255194
15685259772
15685264594
15685271124
15685278265
15685283453
15685290656
15685296332
15685306220
15685311835
15685318671
15685325385
15685331061
15685336371
15685342963
15685349799
15685357245
15685363165
15685369025
15685375067
15685381842
15685387640
15685391669
15685399847
15685406073
15685411627
15685421026
15685428106
15685437506
15685444281
15685458563
15685467230
15685473639
15685478033
15685485418
15685491705
15685499090
15685505926
15685512396
15685518988
15685525884
15685533819
15685540228
15685546026
15685552496
15685559759
15685565801
15685571844
15685579717
15685585455
15685593023
15685598638
15685604437
15685610601
15685617925
15685624212
15685631292
15685639532
15685644537
15685651128
15685659978
15685663824
15685674383
15685682073
15685688909
15685695257
15685700506
15685708440
15685713689
15685721013
15685726323
15685733220
15685739751
15685744390
15685751287
15685758794
15685765020
15685770635
15685780523
15685787786
15685794927
15685801824
15685808232
15685815862
15685823247
15685829412
15685835149
15685842290
15685848454
15685854314
15685861699
15685867925
15685873601
15685882024
15685888982
15685894658
15685901128
15685908208
15685914861
15685921635
15685926152
15685933842
15685940251
15685946294
15685952885
15685960332
15685966191
15685973332
15685977971
15685985661
15685996770
15686003605
15686010869
15686016301
15686024296
15686031682
15686042668
15686049687
15686057805
15686064335
15686070378
15686078495
15686084538
15686090031
15686097782
15686105412
15686112431
15686118962
15686126408
15686132511
15686138127
15686145695
15686152653
15686160404
15686165775
15686173649
15686180241
15686186344
15686192753
15686200077
15686207096
15686211369
15686218510
15686226139
15686231876
15686238407
15686245731
15686252689
15686259342
15686267094
15686273868
15686279850
15686286991
15686294376
15686302250
15686309391
15686315922
15686323551
15686330692
15686338443
15686345768
15686353519
15686362857
15686368351
15686377628
15686384159
15686391483
15686398807
15686405948
15686410404
15686417423
15686421939
15686427310
15686433658
15686440006
15686443302
15686451114
15686457767
15686463565
15686469608
15686476016
15686478824
15686487308
15686492496
15686497867
15686503116
15686509769
15686514896
15686520084
15686525027
15686529971
15686535281
15686539920
15686547671
15686552676
15686558658
15686562442
15686568423
15686572452
15686577212
15686583682
15686589602
15686595950
15686603518
15686609195
15686615298
15686620669
15686627078
15686634585
15686641238
15686646426
15686653628
15686660403
15686666323
15686671817
15686677493
15686683169
15686688723
15686693850
15686699465
15686705752
15686711550
15686716860
15686722781
15686729312
15686735232
15686740359
15686744876
15686749697
15686755496
15686761233
15686768008
15686775027
15686781191
15686786990
15686791262
15686797732
15686802432
15686809267
15686821169
15686828371
15686842898
15686847475
15686857851
15686863467
15686869021
15686875124
15686880923
15686887514
15686893618
15686898501
15686904238
15686910036
15686915590
15686921633
15686926943
15686933535
15686939516
15686945864
15686953798
15686963869
15686970461
15686976747
15686982302
15686987673
15686993471
15687000368
15687005251
15687011232
15687017153
15687022341
15687029299
15687035097
15687041200
15687046694
15687052187
15687056459
15687063173
15687069460
15687073793
15687078798
15687085695
15687092043
15687097902
15687102968
15687109254
15687114809
15687121461
15687125612
15687134645
15687140077
15687144960
15687150453
15687156984
15687162416
15687167604
15687172487
15687177736
15687183534
15687190126
15687195558
15687202028
15687207948
15687212587
15687219240
15687228212
15687233949
15687240846
15687248048
15687254274
15687259645
15687265626
15687271485
15687279359
15687285401
15687291566
15687296022
15687300782
15687306825
15687310670
15687316651
15687323182
15687329164
15687333070
15687339540
15687345033
15687349977
15687355470
15687360841
15687366639
15687372865
15687377015
15687382203
15687387391
15687393128
15687398927
15687404359
15687412537
15687418092
15687422730
15687428529
15687433472
15687440125
15687445313
15687451600
15687456727
15687462769
15687469910
15687474488
15687481629
15687486756
15687491822
15687496583
15687502808
15687511536
15687517823
15687522950
15687528687
15687534607
15687540039
15687545166
15687551575
15687556336
15687563416
15687568909
15687576660
15687581543
15687587525
15687592835
15687601807
15687610047
15687620117
15687626526
15687635498
15687642151
15687652039
15687658386
15687665161
15687674683
15687683655
15687691223
15687700073
15687707397
15687719055
15687726257
15687734863
15687742493
15687750122
15687758301
15687766052
15687774475
15687782409
15687790710
15687797241
15687806823
15687813781
15687823913
15687830505
15687839904
15687846313
15687855835
15687862548
15687869873
15687879394
15687886230
15687895751
15687902832
15687911987
15687919067
15687927734
15687937316
15687948058
15687958312
15687969238
15687980834
15687991210
15688000854
15688010192
15688016051
15688024413
15688033813
15688041198
15688047057
15688055419
15688061339
15688069945
15688075927
15688085021
15688093139
15688101378
15688107238
15688116637
15688124816
15688132750
15688138671
15688146239
15688155211
15688161376
15688169982
15688176940
15688185912
15688191954
15688200804
15688207457
15688214293
15688222106
15688232665
15688240111
15688246153
15688254332
15688262511
15688268431
15688277281
15688283263
15688292113
15688298155
15688307188
15688313902
15688322752
15688329527
15688336302
15688344786
15688351622
15688359801
15688367979
15688375303
15688383055
15688390074
15688397459
15688407225
15688416075
15688423094
15688429930
15688437925
15688445128
15688451902
15688459532
15688467710
15688477049
15688483030
15688490599
15688498960
15688506712
15688514158
15688521910
15688530943
15688537046
15688546140
15688555479
15688562071
15688571470
15688577940
15688586912
15688593992
15688601865
15688611753
15688619749
15688627256
15688635190
15688642820
15688650083
15688658140
15688666440
15688674619
15688684385
15688690732
15688700437
15688706479
15688715635
15688724668
15688731931
15688743100
15688751035
15688759397
15688767942
15688775998
15688783628
15688792783
15688800290
15688812436
15688819516
15688827207
15688834409
15688842221
15688849118
15688856809
15688866269
15688874143
15688880795
15688890561
15688897031
15688904538
15688911435
15688919064
15688925717
15688934506
15688940427
15688949094
15688957211
15688965024
15688971066
15688979672
15688987607
15688993466
15689002072
15689010312
15689016537
15689024044
15689031979
15689041439
15689049618
15689055294
15689060543
15689065365
15689071896
15689078488
15689083798
15689087582
15689094601
15689099056
15689104916
15689112240
15689119381
15689124752
15689130306
15689135800
15689141232
15689147579
15689152828
15689155636
15689163082
15689169674
15689176205
15689179195
15689186703
15689189816
15689198421
15689204586
15689208858
15689213192
15689219173
15689223019
15689228329
15689231197
15689240597
15689244930
15689249630
15689253902
15689260372
15689265194
15689270870
15689275448
15689282955
15689288814
15689294735
15689298885
15689303768
15689307796
15689312740
15689319576
15689325435
15689329769
15689335201
15689340389
15689346248
15689352535
15689356502
15689360958
15689368282
15689373287
15689379268
15689387142
15689394100
15689399227
15689404537
15689411434
15689417293
15689430843
15689438350
15689443233
15689449031
15689455379
15689460017
15689464168
15689468623
15689472713
15689476924
15689481624
15689486324
15689492427
15689496394
15689501521
15689505244
15689515193
15689522517
15689530513
15689535152
15689540950
15689546992
15689552058
15689558894
15689562800
15689567683
15689573665
15689580501
15689589290
15689593928
15689599055
15689603084
15689610835
15689615718
15689618281
15689625666
15689629939
15689636775
15689641291
15689647029
15689652461
15689656733
15689662226
15689666377
15689671931
15689675959
15689682368
15689687129
15689692134
15689695735
15689700251
15689705012
15689710444
15689717585
15689723078
15689728022
15689733759
15689739070
15689745234
15689751460
15689757502
15689763361
15689769160
15689773859
15689778864
15689784419
15689788874
15689793513
15689799128
15689805109
15689810114
15689814204
15689820185
15689825983
15689829951
15689835261
15689843928
15689850336
15689855158
15689861689
15689868036
15689873896
15689879328
15689888544
15689893610
15689898005
15689904657
15689910334
15689917048
15689922785
15689929743
15689937799
15689945124
15689950251
15689955988
15689961481
15689967157
15689972223
15689978144
15689985041
15689990961
15689996088
15690001520
15690007501
15690012873
15690018060
15690021967
15690026850
15690034235
15690040094
15690045465
15690049921
15690055475
15690060358
15690067255
15690072565
15690078363
15690082452
15690088312
15690092645
15690100397
15690106500
15690111566
15690117731
15690125116
15690132501
15690139459
15690145746
15690153924
15690161798
15690169061
15690175287
15690182428
15690188470
15690196222
15690204034
15690212579
15690218622
15690225946
15690235040
15690243341
15690250665
15690258721
15690264947
15690270990
15690281060
15690287713
15690294976
15690301629
15690309930
15690316644
15690324700
15690333245
15690341912
15690349542
15690355462
15690364678
15690372247
15690378411
15690385613
15690391961
15690400445
15690406487
15690413323
15690421868
15690429803
15690435845
15690441094
15690450616
15690456902
15690463555
15690471551
15690479363
15690485772
15690494744
15690502068
15690509026
15690514275
15690522698
15690530266
15690538506
15690542839
15690552483
15690561638
15690573479
15690582573
15690590019
15690597466
15690605095
15690612724
15690620659
15690640556
15690648491
15690657768
15690666679
15690674126
15690681145
15690687798
15690694878
15690701530
15690707390
15690715507
15690722587
15690730278
15690737541
15690744560
15690751091
15690757927
15690763542
15690772392
15690780266
15690787407
15690793632
15690800773
15690807670
15690815605
15690821769
15690830009
15690835991
15690843681
15690853569
15690863395
15690870536
15690878105
15690885002
15690892387
15690898735
15690908683
15690916435
15690923576
15690929130
15690940238
15690950431
15690958976
15690968314
15690974296
15690981559
15690987724
15690996513
15691003226
15691011100
15691018851
15691026481
15691032828
15691041678
15691047721
15691054679
15691061454
15691069571
15691077384
15691085380
15691091666
15691098868
15691105887
15691111991
15691118338
15691129264
15691133841
15691144278
15691150321
15691159232
15691165030
15691172354
15691180472
15691185538
15691195609
15691204398
15691210806
15691218619
15691228507
15691235953
15691245474
15691252554
15691262015
15691269156
15691278677
15691285086
15691294913
15691301504
15691311148
15691318899
15691328238
15691337881
15691348685
15691356375
15691362784
15691370535
15691376455
15691384939
15691395926
15691405935
15691413076
15691422354
15691431082
15691436026
15691444815
15691450186
15691454336
15691460989
15691465261
15691470999
15691476309
15691482717
15691487356
15691492117
15691498281
15691502798
15691508718
15691514395
15691519277
15691524221
15691530203
15691533987
15691540518
15691546133
15691551138
15691556997
15691562734
15691568838
15691573782
15691580312
15691585134
15691589834
15691596242
15691600332
15691606069
15691612234
15691617910
15691623159
15691628713
15691634634
15691640859
15691646535
15691652212
15691656606
15691663320
15691668508
15691674917
15691681020
15691685720
15691692434
15691697377
15691704091
15691709340
15691714406
15691719167
15691726857
15691732412
15691737844
15691742971
15691748586
15691755117
15691760976
15691766347
15691771962
15691777028
15691782582
15691788381
15691793874
15691798818
15691804738
15691810903
15691816945
15691822804
15691828298
15691833730
15691840199
15691845509
15691850392
15691856130
15691861745
15691868337
15691875050
15691880177
15691886891
15691892018
15691898915
15691904958
15691911977
15691917531
15691923451
15691927357
15691933034
15691940724
15691946034
15691954396
15691958790
15691964955
15691970753
15691974904
15691982655
15691989369
15691998036
15692003346
15692010060
15692015858
15692022328
15692027272
15692033741
15692038502
15692045094
15692050282
15692055165
15692060658
15692066578
15692071461
15692076344
15692082325
15692088124
15692092579
15692098683
15692105091
15692111256
15692117970
15692124867
15692130116
15692135670
15692141834
15692146656
15692153431
15692158924
15692165699
15692171864
15692176014
15692181812
15692188709
15692194752
15692202747
15692208179
15692213123
15692219532
15692226673
15692231678
15692239429
15692245289
15692251453
15692257068
15692261585
15692267566
15692272083
15692280079
15692286670
15692294849
15692305957
15692313526
15692322437
15692330249
15692339771
15692348743
15692357410
15692365345
15692375537
15692383716
15692390979
15692398670
15692408069
15692417041
15692425159
15692433826
15692443958
15692451831
15692458484
15692467517
15692474475
15692483752
15692492541
15692499805
15692508105
15692516589
15692525317
15692532947
15692541797
15692550036
15692557605
15692566821
15692574695
15692581836
15692589648
15692597888
15692607104
15692617663
15692628711
15692637500
15692645434
15692651599
15692678515
15692686144
15692693164
15692702563
15692708911
15692720995
15692728259
15692738024
15692745348
15692756091
15692766589
15692775622
15692784106
15692793139
15692804064
15692814318
15692823107
15692833239
15692843249
15692854052
15692863390
15692872851
15692884997
15692893663
15692904894
15692913500
15692923021
15692933947
15692942003
15692952074
15692961229
15692971239
15692981676
15692988451
15693001451
15693010240
15693021044
15693028490
15693040331
15693048998
15693058336
15693066270
15693075365
15693086107
15693093126
15693103441
15693111558
15693122362
15693132493
15693142930
15693154771
15693163865
15693172960
15693181138
15693192064
15693202073
15693213182
15693223619
15693233812
15693242662
15693252122
15693261033
15693272019
15693281114
15693290696
15693302232
15693311936
15693320054
15693331956
15693339280
15693350266
15693361070
15693370347
15693381089
15693389878
15693399583
15693411057
15693419785
15693430833
15693443223
15693453538
15693465622
15693474228
15693485764
15693495347
15693508347
15693518174
15693530014
15693541001
15693549668
15693561936
15693574936
15693586594
15693594650
15693605393
15693613754
15693627365
15693635910
15693647568
15693656235
15693667404
15693677475
15693687302
15693695969
15693704819
15693717819
15693728012
15693733871
15693742660
15693748520
15693755966
15693762802
15693770309
15693777145
15693785019
15693791488
15693800094
15693806076
15693813400
15693820541
15693831527
15693838913
15693845260
15693852951
15693860763
15693868942
15693875106
15693881332
15693888839
15693896530
15693902328
15693909713
15693915206
15693922775
15693927596
15693936385
15693942367
15693950729
15693958236
15693965194
15693971175
15693976180
15693983810
15693990462
15693996505
15694004439
15694009933
15694017440
15694023788
15694031478
15694036910
15694044295
15694052291
15694060348
15694066512
15694074447
15694079512
15694087996
15694096541
15694103865
15694111068
15694114852
15694123763
15694131331
15694138045
15694143477
15694151839
15694162276
15694171126
15694179183
15694183638
15694189253
15694192977
15694200972
15694209273
15694216353
15694219954
15694224593
15694228987
15694233748
15694239241
15694244978
15694250288
15694253645
15694258711
15694262373
15694269942
15694273299
15694278853
15694284102
15694287886
15694294356
15694298750
15694304488
15694309798
15694315047
15694320357
15694326338
15694331892
15694337874
15694343184
15694350691
15694357344
15694363325
15694368635
15694374983
15694381941
15694387556
15694392256
15694397505
15694403120
15694409224
15694414289
15694420271
15694425398
15694431440
15694437117
15694443342
15694450300
15694455122
15694458845
15694465986
15694471113
15694476911
15694482771
15694487470
15694492964
15694497968
15694502851
15694510053
15694514936
15694518842
15694524458
15694529279
15694536665
15694542646
15694548689
15694552351
15694558698
15694564619
15694570844
15694576398
15694582136
15694590192
15694595197
15694600141
15694606550
15694612043
15694620466
15694624738
15694633405
15694637006
15694645307
15694649518
15694654401
15694660138
15694664533
15694669538
15694677900
15694683332
15694687543
15694693647
15694699140
15694704389
15694712262
15694717511
15694722394
15694729108
15694735761
15694741681
15694748578
15694756879
15694763776
15694770124
15694775434
15694782025
15694786786
15694793561
15694799542
15694804791
15694809796
15694816754
15694821881
15694827069
15694831830
15694838849
15694845868
15694851361
15694856488
15694863324
15694871136
15694876141
15694881818
15694889264
15694893964
15694899213
15694906964
15694911664
15694919354
15694925702
15694930401
15694936627
15694943097
15694949261
15694954938
15694959820
15694965741
15694973004
15694979413
15694985760
15694992657
15694998822
15695005108
15695009991
15695016644
15695021588
15695028118
15695033673
15695041363
15695047528
15695052532
15695057537
15695065838
15695071758
15695079998
15695083599
15695091351
15695097576
15695101605
15695109356
15695113934
15695119610
15695125897
15695131573
15695137188
15695142498
15695147259
15695154400
15695157207
15695166180
15695172527
15695178326
15695184246
15695191265
15695195354
15695201214
15695208416
15695213848
15695222942
15695229412
15695234051
15695240948
15695248394
15695253521
15695261089
15695265911
15695273540
15695279583
15695285564
15695291546
15695296428
15695302044
15695306987
15695312786
15695316326
15695327678
15695333232
15695340679
15695347759
15695355937
15695360271
15695371746
15695378459
15695389690
15695402934
15695411846
15695419353
15695426860
15695436321
15695444438
15695452190
15695460612
15695468425
15695476604
15695484416
15695493144
15695499980
15695509074
15695515849
15695526408
15695532878
15695542888
15695549540
15695559062
15695565654
15695572490
15695582377
15695590556
15695598185
15695604472
15695614482
15695620341
15695628093
15695634867
15695645182
15695653178
15695660685
15695670329
15695677470
15695685282
15695692118
15695700785
15695707621
15695715617
15695722331
15695729899
15695736674
15695745158
15695752116
15695758891
15695766581
15695774638
15695782206
15695789591
15695797037
15695803995
15695811747
15695817972
15695826761
15695834818
15695842386
15695848429
15695856730
15695864847
15695872904
15695878946
15695885660
15695894632
15695903971
15695909952
15695916544
15695925943
15695935099
15695941629
15695949381
15695956888
15695966654
15695976724
15695984842
15695992471
15695998270
15696006571
15696014200
15696022684
15696029337
15696039713
15696046304
15696054666
15696063821
15696069925
15696079507
15696085916
15696096231
15696103006
15696113077
15696119058
15696129495
15696134866
15696144510
15696152810
15696161722
15696170266
15696178384
15696186563
15696195108
15696199319
15696213113
15696223245
15696229592
15696238381
15696245950
15696251443
15696260415
15696269204
15696274880
15696283730
15696291299
15696297280
15696305398
15696313455
15696321389
15696327615
15696334878
15696343545
15696349831
15696358559
15696366067
15696372597
15696380349
15696387124
15696395486
15696403115
15696409707
15696420022
15696427468
15696435525
15696444375
15696453835
15696462075
15696470131
15696477334
15696485390
15696489968
15696501259
15696507607
15696515175
15696524697
15696532143
15696541664
15696547707
15696557778
15696565468
15696575356
15696582497
15696590126
15696596413
15696607399
15696614906
15696623085
15696630714
15696639381
15696646706
15696654884
15696661476
15696670937
15696677895
15696685280
15696695045
15696703773
15696711647
15696718849
15696726478
15696733375
15696743751
15696750221
15696758583
15696768104
15696776283
15696780800
15696789833
15696796669
15696801368
15696806312
15696814308
15696817909
15696826942
15696832069
15696837684
15696844581
15696850013
15696855079
15696860877
15696867652
15696875709
15696881751
15696886146
15696892127
15696899574
15696905067
15696911720
15696915931
15696922523
15696931495
15696936378
15696945167
15696950050
15696955299
15696962196
15696968726
15696988624
15696993568
15697000159
15697004371
15697011268
15697017127
15697021644
15697026282
15697031531
15697035987
15697040381
15697045020
15697049170
15697055091
15697059668
15697064978
15697070655
15697077185
15697082984
15697088721
15697096350
15697102088
15697106971
15697111548
15697117408
15697121924
15697126563
15697132422
15697140113
15697144385
15697150672
15697154456
15697160620
15697165747
15697173377
15697179053
15697184241
15697188696
15697194983
15697201026
15697206519
15697211890
15697216711
15697222571
15697228003
15697233801
15697240454
15697244910
15697250342
15697257178
15697263159
15697268225
15697273779
15697278052
15697283484
15697288611
15697295630
15697300940
15697307104
15697311682
15697317724
15697322607
15697328894
15697334875
15697341162
15697346594
15697351477
15697357763
15697365088
15697370642
15697376013
15697383276
15697387487
15697394018
15697401281
15697406103
15697412268
15697416967
15697424780
15697431616
15697437597
15697442236
15697450109
15697453710
15697460424
15697466772
15697473547
15697480993
15697487585
15697493505
15697498937
15697503210
15697510900
15697517858
15697524450
15697529821
15697535802
15697541784
15697548681
15697553442
15697560705
15697567236
15697572607
15697580663
15697586523
15697590917
15697597509
15697603124
15697608373
15697612585
15697618200
15697622899
15697630041
15697636510
15697641820
15697645910
15697653051
15697657567
15697664220
15697668737
15697677221
15697682103
15697687352
15697693883
15697698888
15697703283
15697710118
15697715795
15697723973
15697730992
15697736791
15697741857
15697747960
15697752111
15697757298
15697763463
15697770116
15697774999
15697781224
15697786962
15697790746
15697798680
15697803746
15697810948
15697815892
15697823033
15697828526
15697833958
15697839207
15697844640
15697849889
15697854649
15697861607
15697867345
15697873326
15697878270
15697882970
15697888890
15697892979
15697899144
15697906956
15697911046
15697916783
15697922276
15697928807
15697933812
15697938633
15697946568
15697953526
15697958653
15697968174
15697975438
15697985203
15697991673
15698002476
15698011265
15698021153
15698028843
15698037937
15698045933
15698051792
15698060887
15698067234
15698075047
15698083714
15698092014
15698098362
15698105442
15698114842
15698121494
15698130283
15698141514
15698147861
15698155857
15698163975
15698173374
15698181248
15698188450
15698201877
15698210789
15698219761
15698227146
15698235630
15698242954
15698251987
15698258213
15698267307
15698275608
15698284214
15698291477
15698298557
15698306430
15698315403
15698322422
15698330722
15698337802
15698344638
15698351230
15698357700
15698364414
15698374240
15698380588
15698387485
15698395664
15698401401
15698410251
15698418124
15698425143
15698433566
15698440952
15698447543
15698454562
15698463412
15698470431
15698478732
15698485385
15698491977
15698499484
15698507846
15698513949
15698522860
15698529452
15698537753
15698545382
15698553988
15698561679
15698567721
15698576327
15698584872
15698590792
15698600680
15698606784
15698614718
15698622531
15698630953
15698636996
15698645297
15698654757
15698662631
15698670016
15698677462
15698684847
15698693026
15698700411
15698706759
15698716341
15698722994
15698731783
15698740023
15698746310
15698753329
15698762057
15698767733
15698776339
15698785189
15698792696
15698797823
15698806307
15698815279
15698821871
15698829012
15698838472
15698848482
15698856905
15698863558
15698869967
15698881685
15698889498
15698898348
15698905367
15698915743
15698924410
15698932039
15698938692
15698959627
15698966585
15698976961
15698982759
15698991182
15698998750
15699007112
15699013826
15699023897
15699031038
15699039949
15699045564
15699054658
15699062898
15699069185
15699077425
15699083894
15699092317
15699098848
15699108735
15699115693
15699123201
15699127656
15699137178
15699143342
15699153108
15699160432
15699168184
15699176728
15699184663
15699192842
15699201081
15699212007
15699221040
15699227021
15699235566
15699241731
15699250398
15699259309
15699267304
15699274934
15699282929
15699289155
15699295075
15699303132
15699307587
15699313325
15699318513
15699326386
15699332551
15699340119
15699347260
15699353852
15699360810
15699366303
15699374055
15699378266
15699384797
15699388825
15699395600
15699400117
15699406037
15699410370
15699418122
15699422638
15699428620
15699433075
15699437653
15699443512
15699448761
15699455536
15699461457
15699466950
15699473298
15699478119
15699483979
15699490082
15699494233
15699500702
15699507538
15699511750
15699518219
15699522736
15699527802
15699533966
15699538605
15699544831
15699549408
15699555939
15699560883
15699566315
15699573395
15699578400
15699582855
15699587982
15699594269
15699600311
15699605560
15699613983
15699618134
15699624786
15699629181
15699635956
15699640778
15699645172
15699650360
15699654633
15699659698
15699664459
15699669403
15699674652
15699682037
15699689117
15699694000
15699699798
15699704315
15699710663
15699716339
15699722259
15699727203
15699732452
15699738556
15699741852
15699750030
15699754059
15699761810
15699768341
15699774932
15699780609
15699786407
15699791351
15699796966
15699801910
15699807525
15699812347
15699818878
15699823028
15699828582
15699833282
15699839080
15699845428
15699851104
15699856414
15699864471
15699869354
15699875640
15699880401
15699888030
15699893890
15699898101
15699905059
15699911224
15699917327
15699924102
15699929595
15699934539
15699940581
15699946319
15699953216
15699959502
15699965179
15699970183
15699976165
15699981048
15699988555
15699993438
15699998076
15700005218
15700011016
15700017302
15700023528
15700029448
15700034758
15700041411
15700047637
15700053985
15700058745
15700064483
15700070342
15700077422
15700083403
15700088958
15700094085
15700100859
15700106230
15700111235
15700117827
15700124236
15700130034
15700135955
15700142729
15700148589
15700154631
15700161284
15700166594
15700172820
15700179106
15700185271
15700192473
15700201323
15700208098
15700215361
15700221831
15700228667
15700234099
15700241240
15700246001
15700251799
15700258940
15700265654
15700271574
15700278166
15700282927
15700288725
15700295073
15700301420
15700306914
15700313261
15700318632
15700323027
15700329680
15700334684
15700341032
15700348112
15700354216
15700359465
15700365446
15700371305
15700378508
15700384245
15700389067
15700396757
15700402128
15700407804
15700412748
15700419767
15700424528
15700431425
15700437712
15700443693
15700447050
15700455656
15700463407
15700469023
15700472685
15700481107
15700488065
15700493192
15700499723
15700507475
15700517484
15700526701
15700535490
15700541959
15700549222
15700559232
15700565458
15700572782
15700582853
15700591215
15700600675
15700607755
15700614530
15700622220
15700629056
15700635587
15700643277
15700652921
15700660978
15700665616
15700678922
15700686185
15700695523
15700702909
15700712857
15700721036
15700730496
15700736356
15700746121
15700754727
15700761380
15700767850
15700777921
15700787381
15700793729
15700802335
15700808865
15700817838
15700827176
15700832059
15700842252
15700854642
15700863248
15700871243
15700877957
15700888638
15700895230
15700903409
15700911831
15700926724
15700935513
15700943020
15700951931
15700957913
15700967434
15700973904
15700982388
15700990506
15700998257
15701005154
15701012722
15701021023
15701028408
15701037075
15701044399
15701051785
15701059475
15701066189
15701074001
15701079983
15701088039
15701095974
15701103542
15701109402
15701117031
15701126614
15701132900
15701142788
15701149807
15701157680
15701167751
15701173855
15701181606
15701188503
15701195766
15701203823
15701210903
15701221340
15701228298
15701236843
15701243557
15701252041
15701260707
15701269008
15701275539
15701283168
15701292995
15701302150
15701308803
15701316555
15701324062
15701333156
15701341213
15701348049
15701356288
15701366298
15701374049
15701381069
15701389369
15701398158
15701406337
15701413722
15701422389
15701428859
15701438808
15701445521
15701451808
15701461513
15701469691
15701477748
15701485560
15701493068
15701500819
15701509120
15701516627
15701527125
15701534327
15701542567
15701549830
15701558680
15701565211
15701574610
15701583705
15701589076
15701598902
15701607936
15701614527
15701622157
15701632167
15701641261
15701648341
15701654994
15701664637
15701672816
15701681056
15701690577
15701698817
15701705836
15701714625
15701723658
15701732020
15701738795
15701746973
15701754664
15701764673
15701775294
15701785425
15701791285
15701799586
15701807764
15701814356
15701823145
15701829004
15701837977
15701844019
15701853052
15701859949
15701868921
15701874536
15701884485
15701889917
15701900415
15701907801
15701916468
15701923975
15701932092
15701937158
15701943445
15701948999
15701955164
15701959192
15701968042
15701973108
15701978113
15701984888
15701990930
15701997583
15702001855
15702009302
15702014612
15702020105
15702025964
15702031885
15702039026
15702045618
15702049463
15702055688
15702063013
15702070154
15702075891
15702081750
15702087549
15702094995
15702099817
15702106042
15702115014
15702122155
15702126977
15702134485
15702140161
15702146753
15702151574
15702156518
15702162133
15702167504
15702175378
15702180688
15702186547
15702191491
15702197961
15702203271
15702209741
15702217431
15702223596
15702230493
15702235131
15702242028
15702247216
15702252648
15702258141
15702265283
15702270165
15702277795
15702283715
15702289208
15702294823
15702301110
15702305932
15702312341
15702318017
15702323876
15702327233
15702334252
15702340478
15702347619
15702352624
15702357201
15702364403
15702369958
15702378625
15702382653
15702389794
15702394372
15702403222
15702407189
15702413537
15702421898
15702427697
15702433861
15702441552
15702448815
15702455895
15702461510
15702468102
15702474450
15702480248
15702485558
15702491295
15702496605
15702503441
15702508385
15702513512
15702520714
15702525902
15702531944
15702538353
15702543602
15702549400
15702556603
15702562340
15702566795
15702572838
15702579613
15702584740
15702590721
15702594444
15702603050
15702607811
15702612694
15702618248
15702626976
15702634788
15702639671
15702646812
15702651939
15702657738
15702663353
15702671226
15702677147
15702683433
15702690452
15702697044
15702704551
15702709923
15702713157
15702722496
15702725914
15702734031
15702741478
15702747947
15702753257
15702759300
15702764122
15702770896
15702779075
15702785301
15702790794
15702797386
15702801719
15702809715
15702814231
15702819358
15702826744
15702834495
15702839500
15702845909
15702850364
15702855674
15702862754
15702868552
15702873618
15702879051
15702885825
15702891685
15702897117
15702903526
15702909080
15702914390
15702920005
15702926109
15702933616
15702938010
15702943565
15702948997
15702955100
15702961692
15702967795
15702971396
15702979575
15702986716
15702992576
15702998313
15703003928
15703007041
15703014731
15703020652
15703029136
15703036277
15703042197
15703046775
15703051413
15703058371
15703064597
15703072959
15703082419
15703087058
15703093711
15703098288
15703105124
15703109214
15703113852
15703120200
15703126731
15703131125
15703137595
15703143759
15703148886
15703153037
15703158896
15703165122
15703170554
15703176535
15703183127
15703190268
15703198630
15703207419
15703215781
15703225180
15703232565
15703241659
15703249472
15703256918
15703267905
15703275778
15703283346
15703292380
15703299948
15703310202
15703316977
15703323507
15703332846
15703341085
15703351217
15703360617
15703367086
15703375814
15703382101
15703388204
15703397055
15703404806
15703412008
15703420736
15703429830
15703437338
15703443807
15703449423
15703458151
15703464315
15703470724
15703480428
15703487264
15703493856
15703501852
15703508443
15703514913
15703522176
15703528585
15703538106
15703544942
15703552816
15703559347
15703566488
15703573080
15703579000
15703587850
15703593892
15703603658
15703610311
15703619710
15703627218
15703637532
15703645101
15703653341
15703660665
15703669515
15703677449
15703684835
15703692769
15703699666
15703707540
15703715291
15703727437
15703734395
15703745686
15703753743
15703762593
15703767964
15703777058
15703786641
15703792806
15703802876
15703811909
15703818440
15703827718
15703834370
15703843465
15703850056
15703858784
15703864461
15703873311
15703881123
15703888325
15703895833
15703904500
15703911641
15703920369
15703927571
15703934529
15703942280
15703949421
15703955647
15703965351
15703970967
15703980366
15703987141
15703996784
15704004170
15704011067
15704018818
15704027729
15704037922
15704046284
15704051838
15704059956
15704067707
15704073689
15704082661
15704092182
15704099506
15704106709
15704114399
15704122456
15704129780
15704137897
15704145466
15704152302
15704162494
15704169514
15704177387
15704184894
15704192829
15704199787
15704209430
15704217426
15704226703
15704234211
15704241474
15704249530
15704256855
15704265461
15704272663
15704280475
15704289814
15704295368
15704304767
15704311847
15704321185
15704328266
15704336017
15704344257
15704353778
15704359882
15704369159
15704375568
15704385699
15704393939
15704403339
15704411639
15704418109
15704426593
15704432880
15704441852
15704450763
15704458636
15704465838
15704474139
15704482745
15704490924
15704497699
15704505938
15704514911
15704523761
15704532489
15704543475
15704550799
15704558673
15704565325
15704569964
15704575213
15704583331
15704590533
15704596514
15704604022
15704608843
15704613665
15704620684
15704626055
15704633563
15704638567
15704644854
15704649859
15704656878
15704661334
15704667193
15704671954
15704678179
15704686236
15704691546
15704699480
15704703265
15704710711
15704716265
15704722246
15704728350
15704734392
15704740252
15704746538
15704752825
15704757403
15704763628
15704771929
15704775530
15704786944
15704791887
15704798113
15704803118
15704809160
15704813982
15704823076
15704833269
15704838884
15704846148
15704854143
15704858171
15704861040
15704870195
15704874529
15704879106
15704884661
15704889910
15704894976
15704899797
15704904619
15704911089
15704917009
15704922197
15704927568
15704932878
15704936052
15704945390
15704950639
15704958086
15704965349
15704970903
15704979753
15704985979
15704992509
15704996477
15705004533
15705009721
15705017534
15705024248
15705032060
15705037553
15705044023
15705050004
15705056840
15705062211
15705068681
15705076249
15705084672
15705089677
15705096269
15705102067
15705109147
15705113420
15705121232
15705126481
15705134111
15705139054
15705147538
15705151994
15705159684
15705166398
15705172380
15705178300
15705183732
15705188371
15705195756
15705203568
15705212602
15705215653
15705223039
15705230485
15705236588
15705239823
15705247086
15705251786
15705256852
15705262711
15705267838
15705272721
15705280900
15705285477
15705290971
15705296952
15705301286
15705305375
15705311417
15705315568
15705321976
15705327653
15705332841
15705337418
15705341386
15705348099
15705353287
15705358658
15705367814
15705372269
15705378190
15705383072
15705388566
15705395585
15705399796
15705404557
15705411210
15705416520
15705422257
15705427994
15705433976
15705438736
15705444413
15705450516
15705457718
15705463822
15705467728
15705473282
15705478348
15705484696
15705489701
15705494828
15705501786
15705507401
15705513077
15705517227
15705523636
15705527115
15705533951
15705537918
15705543350
15705551834
15705557510
15705562759
15705568924
15705574905
15705579666
15705584305
15705590164
15705596878
15705602982
15705607864
15705613235
15705618240
15705624344
15705628860
15705634415
15705641189
15705647842
15705653946
15705660171
15705665848
15705671768
15705674942
15705682327
15705687393
15705694046
15705699356
15705704422
15705710769
15705716385
15705721817
15705729690
15705737075
15705745254
15705751480
15705758865
15705765640
15705776443
15705782608
15705794326
15705801650
15705814224
15705823684
15705832168
15705836807
15705847854
15705854324
15705862563
15705869582
15705880508
15705887099
15705896560
15705905227
15705911513
15705921157
15705927810
15705937270
15705944106
15705953689
15705961074
15705970473
15705977248
15705986464
15705993178
15706002700
15706010695
15706019851
15706028334
15706034560
15706047622
15706056411
15706064467
15706069716
15706081618
15706089186
15706097731
15706106948
15706115553
15706119704
15706130812
15706142104
15706148634
15706156569
15706163710
15706172072
15706179152
15706186293
15706195631
15706203810
15706210097
15706218031
15706226881
15706234144
15706240614
15706249830
15706258192
15706266371
15706274916
15706282667
15706290541
15706298292
15706304884
15706312758
15706320875
15706330519
15706336744
15706344618
15706354383
15706362013
15706368910
15706378736
15706385511
15706395643
15706404005
15706410658
15706418287
15706424818
15706434461
15706441358
15706451795
15706456678
15706467237
15706474256
15706481763
15706489637
15706497205
15706507032
15706514051
15706520399
15706531995
15706540906
15706551710
15706559156
15706566602
15706574293
15706582349
15706591626
15706599561
15706610669
15706618177
15706625257
15706634473
15706643140
15706650098
15706658948
15706666333
15706674512
15706679212
15706688001
15706695142
15706702954
15706710828
15706717359
15706727185
15706731580
15706741040
15706750684
15706757947
15706766003
15706773084
15706781262
15706789258
15706797070
15706804761
15706812512
15706822827
15706829236
15706838086
15706845715
15706852917
15706861279
15706870190
15706877636
15706886303
15706892468
15706901440
15706907666
15706917126
15706922802
15706931836
15706941845
15706947827
15706955883
15706962963
15706970959
15706978466
15706985668
15706995983
15707004284
15707012158
15707019482
15707027844
15707036511
15707042858
15707049267
15707059032
15707066052
15707073925
15707084118
15707091320
15707098949
15707106152
15707115734
15707123058
15707130810
15707138744
15707146801
15707154003
15707161449
15707167064
15707174145
15707180370
15707184215
15707193493
15707197887
15707205089
15707209606
15707217479
15707222911
15707228222
15707235057
15707240856
15707247081
15707253612
15707259838
15707265087
15707270885
15707276622
15707281444
15707289440
15707294933
15707303539
15707306896
15707316051
15707322948
15707328563
15707333751
15707338573
15707343456
15707353099
15707360484
15707365489
15707370067
15707377940
15707383006
15707389598
15707395335
15707401500
15707406261
15707412059
15707418651
15707424693
15707430430
15707436229
15707442637
15707447886
15707454234
15707459849
15707465709
15707472423
15707477794
15707482860
15707489390
15707494822
15707501536
15707506297
15707512339
15707518687
15707524119
15707530040
15707535411
15707543895
15707550669
15707556590
15707563426
15707570262
15707575022
15707581614
15707587168
15707593821
15707600474
15707606333
15707611277
15707616343
15707621348
15707629160
15707635142
15707640574
15707646006
15707652110
15707658518
15707664988
15707670420
15707675364
15707681834
15707688731
15707695811
15707700877
15707708201
15707714121
15707720530
15707727427
15707733652
15707739756
15707746103
15707754954
15707760203
15707764780
15707771799
15707778513
15707784067
15707788218
15707793955
15707801035
15707808481
15707814707
15707820261
15707823313
15707832590
15707837290
15707843149
15707849314
15707854929
15707861704
15707867136
15707872812
15707879160
15707886057
15707891489
15707899607
15707904856
15707912241
15707919992
15707927011
15707932321
15707938608
15707945139
15707950876
15707955209
15707962534
15707969492
15707979623
15707984811
15707990060
15707996652
15708001413
15708006906
15708011667
15708016183
15708022592
15708029123
15708034799
15708037973
15708044565
15708050058
15708055490
15708061227
15708067941
15708071359
15708079416
15708086313
15708093148
15708098825
15708105417
15708110299
15708115792
15708120980
15708127328
15708133615
15708142038
15708148568
15708153390
15708158334
15708164804
15708167855
15708174630
15708180612
15708186166
15708189523
15708196237
15708201425
15708208016
15708212289
15708217843
15708223153
15708228585
15708234933
15708238839
15708245065
15708249398
15708255868
15708261300
15708266610
15708273751
15708281319
15708286324
15708291268
15708296334
15708301888
15708306527
15708312142
15708318124
15708324410
15708328622
15708333932
15708339486
15708345833
15708350716
15708356698
15708362008
15708367623
15708373482
15708379647
15708385567
15708392403
15708401925
15708407174
15708417061
15708425606
15708435738
15708441536
15708449837
15708458077
15708465462
15708472725
15708479805
15708487190
15708497444
15708503853
15708510689
15708517586
15708525459
15708532356
15708540352
15708550606
15708560555
15708567329
15708577095
15708585030
15708594673
15708602364
15708613899
15708623176
15708631294
15708640205
15708647713
15708656135
15708664131
15708672859
15708680061
15708687751
15708697578
15708705574
15708712654
15708720100
15708729011
15708736702
15708744026
15708751045
15708760627
15708768074
15708774970
15708782722
15708789680
15708796943
15708804878
15708812080
15708819648
15708828132
15708836128
15708842963
15708851997
15708859504
15708870307
15708876960
15708884467
15708893500
15708899299
15708908576
15708916205
15708922797
15708931830
15708938361
15708946418
15708956305
15708963019
15708972785
15708979010
15708988776
15708996528
15709004096
15709012214
15709020514
15709027594
15709038275
15709045356
15709053473
15709061896
15709068244
15709074774
15709085456
15709091864
15709100409
15709106329
15709115607
15709121771
15709128546
15709137824
15709147345
15709153937
15709161383
15709170660
15709178839
15709184882
15709191717
15709201056
15709210272
15709218390
15709225470
15709232428
15709239264
15709247137
15709254767
15709262274
15709270758
15709278814
15709286261
15709293768
15709300604
15709308477
15709314398
15709324163
15709330694
15709341436
15709346014
15709360723
15709369573
15709377691
15709385687
15709392034
15709403814
15709410467
15709420721
15709428228
15709438970
15709449773
15709457952
15709466497
15709473272
15709479803
15709487127
15709496099
15709503789
15709511541
15709519170
15709526800
15709534551
15709542669
15709550176
15709557927
15709566106
15709573125
15709580755
15709588689
15709596135
15709603154
15709610845
15709617070
15709625676
15709634282
15709641790
15709648564
15709660466
15709667607
15709677190
15709684026
15709691899
15709699162
15709706731
15709714238
15709721806
15709730290
15709737859
15709745000
15709752751
15709760747
15709768254
15709775700
15709783208
15709789311
15709795476
15709800297
15709805363
15709810857
15709817509
15709823491
15709830388
15709835759
15709840886
15709846013
15709851872
15709859623
15709865239
15709870488
15709877202
15709882390
15709886845
15709893620
15709900090
15709906132
15709910771
15709917118
15709921940
15709926701
15709934330
15709939640
15709947148
15709951420
15709958744
15709963932
15709970036
15709977360
15709984257
15709992558
15709999211
15710005985
15710010624
15710015385
15710023197
15710029118
15710034489
15710039249
15710044315
15710049076
15710055912
15710059330
15710071171
15710079594
15710086307
15710091618
15710096744
15710104191
15710110355
15710116764
15710123051
15710130741
15710136478
15710143924
15710148380
15710155643
15710160770
15710165958
15710171390
15710177311
15710182316
15710190128
15710194706
15710199955
15710206363
15710212894
15710219547
15710225711
15710232181
15710237613
15710243473
15710250370
15710255496
15710261234
15710267765
15710273685
15710278690
15710285282
15710291690
15710296268
15710304386
15710308719
15710316470
15710321414
15710328067
15710333133
15710339603
15710345523
15710351077
15710357242
15710363773
15710368838
15710374881
15710380496
15710386478
15710389896
15710398685
15710403567
15710409915
15710414920
15710422244
15710426883
15710433719
15710439456
15710444888
15710450137
15710455508
15710462527
15710469058
15710476077
15710482119
15710488101
15710493411
15710500430
15710505862
15710511966
15710516848
15710523867
15710531192
15710535159
15710541934
15710546939
15710552493
15710557864
15710565005
15710573489
15710579775
15710584292
15710590273
15710596316
15710603457
15710610232
15710617556
15710623538
15710627993
15710632693
15710640505
15710650271
15710658389
15710664858
15710671633
15710677187
15710683657
15710688662
15710695925
15710703676
15710711001
15710717531
15710724306
15710731386
15710736880
15710741762
15710749514
15710755861
15710763247
15710770083
15710777224
15710782290
15710788515
15710794802
15710799135
15710805361
15710809511
15710815554
15710819460
15710826479
15710832582
15710838015
15710843691
15710850038
15710856935
15710863466
15710869142
15710874452
15710881044
15710887819
15710894289
15710898744
15710904909
15710909609
15710914674
15710922853
15710927980
15710933901
15710939760
15710948366
15710953188
15710958681
15710964296
15710971010
15710976808
15710982240
15710987428
15710992677
15710999818
15711005495
15711011476
15711016908
15711022462
15711030336
15711038881
15711044679
15711051149
15711056459
15711063051
15711067567
15711073182
15711078859
15711084718
15711090028
15711096254
15711102845
15711108522
15711113343
15711120790
15711126710
15711131349
15711136598
15711144776
15711149598
15711155091
15711161073
15711167970
15711173585
15711179566
15711184937
15711191529
15711196961
15711201600
15711208192
15711214600
15711219239
15711224183
15711230714
15711235474
15711243653
15711249390
15711255616
15711260316
15711265565
15711272279
15711279237
15711285279
15711291382
15711298340
15711304017
15711310486
15711314332
15711323853
15711332398
15711340088
15711346802
15711353394
15711358948
15711364808
15711370545
15711376343
15711382691
15711390076
15711396363
15711403931
15711408692
15711416443
15711421692
15711426392
15711433045
15711437561
15711443726
15711449036
15711454346
15711459229
15711466187
15711470764
15711477295
15711483643
15711490723
15711496277
15711503418
15711509033
15711513367
15711518189
15711525513
15711530640
15711537415
15711542236
15711548096
15711554199
15711560120
15711565552
15711573486
15711578552
15711584839
15711590210
15711595459
15711602417
15711607666
15711613525
15711620544
15711628540
15711635132
15711641052
15711647461
15711654480
15711660400
15711664856
15711669922
15711678039
15711683288
15711689087
15711695800
15711701538
15711708862
15711714477
15711720459
15711726501
15711733825
15711740234
15711745910
15711751098
15711757995
15711765624
15711770141
15711775085
15711782836
15711789001
15711796386
15711802123
15711807800
15711813781
15711818908
15711823486
15711831786
15711835693
15711844726
15711851562
15711857665
15711863219
15711868774
15711874572
15711881225
15711888000
15711893676
15711898803
15711903991
15711909728
15711915221
15711920897
15711926391
15711932494
15711937987
15711943480
15711949340
15711957213
15711964293
15711970031
15711976928
15711983031
15711988280
15711994139
15712009276
15712017577
15712025756
15712033019
15712042235
15712049376
15712056029
15712063475
15712070922
15712079466
15712085204
15712090025
15712095091
15712099852
15712104918
15712110716
15712116332
15712121581
15712127074
15712131895
15712136778
15712141417
15712146361
15712151122
15712156371
15712161558
15712167479
15712172545
15712175902
15712181761
15712185301
15712190672
15712195738
15712200621
15712205504
15712210570
15712214964
15712219786
15712224180
15712230223
15712235045
15712239744
15712245054
15712249510
15712253538
15712257689
15712262999
15712268492
15712273741
15712276793
15712281858
15712287352
15712291075
15712297178
15712301634
15712309996
15712314329
15712320127
15712325315
15712330015
15712333616
15712339353
15712344786
15712349790
15712356138
15712361448
15712366758
15712371580
15712374388
15712380552
15712385679
15712391721
15712395872
15712400694
15712406370
15712411497
15712416502
15712421995
15712427854
15712434385
15712439634
15712444883
15712449522
15712456297
15712460691
15712467588
15712473875
15712479917
15712485654
15712492734
15712497434
15712503538
15712508726
15712513791
15712522947
15712529111
15712536374
15712542600
15712548154
15712553037
15712558103
15712562619
15712567502
15712573728
15712578855
15712584043
15712589658
15712593808
15712599179
15712603452
15712609738
15712616330
15712621945
15712626706
15712632749
15712637509
15712642575
15712647885
15712653684
15712660642
15712665708
15712671018
15712677060
15712681699
15712686398
15712695187
15712702329
15712709226
15712714963
15712719846
15712724545
15712730222
15712736386
15712741513
15712746823
15712753171
15712757077
15712763119
15712767758
15712773801
15712778561
15712785702
15712791989
15712797726
15712803525
15712808346
15712814145
15712820736
15712825009
15712831296
15712837521
15712842343
15712846249
15712852658
15712856747
15712863583
15712868039
15712873654
15712880368
15712886715
15712892392
15712898861
15712903683
15712910397
15712916684
15712922482
15712928280
15712932370
15712937252
15712945248
15712950436
15712958004
15712962704
15712969662
15712975704
15712982052
15712987667
15712993343
15712998898
15713005428
15713011837
15713016354
15713022274
15713028378
15713034725
15713041134
15713047665
15713053158
15713061214
15713066463
15713072933
15713079220
15713086483
15713091976
15713096493
15713103817
15713111080
15713117672
15713125240
15713131832
15713138668
15713144161
15713149776
15713155452
15713161617
15713167171
15713175472
15713182491
15713186458
15713193477
15713198238
15713203243
15713208431
15713215755
15713221370
15713226680
15713233028
15713239131
15713244502
15713250789
15713255123
15713260250
15713265926
15713271785
15713278438
15713285640
15713290645
15713297603
15713304012
15713308955
15713314510
15713320674
15713327144
15713332271
15713337215
15713344844
15713350520
15713357173
15713362178
15713369319
15713375911
15713381526
15713388850
15713393733
15713399898
15713404780
15713410274
15713416316
15713423274
15713428645
15713431758
15713440303
15713445735
15713452510
15713458979
15713463557
15713468318
15713475947
15713479670
15713487788
15713492732
15713499141
15713504023
15713510188
15713515986
15713523555
15713528804
15713533198
15713540156
15713547175
15713552607
15713557490
15713563349
15713568965
15713573969
15713579402
15713586970
15713591792
15713596613
15713604304
15713610896
15713616084
15713621638
15713627131
15713633295
15713639582
15713644465
15713650629
15713658137
15713663325
15713670283
15713678095
15713685175
15713690729
15713695002
15713701533
15713707697
15713713618
15713719050
15713731012
15713736872
15713742853
15713748835
15713753779
15713759577
15713764399
15713769648
15713774653
15713780756
15713786432
15713792597
15713796991
15713803827
15713808893
15713815058
15713819452
15713825128
15713829401
15713834955
15713842157
15713847406
15713852838
15713857843
15713862726
15713867853
15713874140
15713878839
15713885004
15713890558
15713898004
15713904169
15713911310
15713915094
15713921198
15713926080
15713931818
15713937311
15713944086
15713951532
15713957513
15713960931
15713967950
15713973871
15713979364
15713984857
15713990777
15713999017
15714004510
15714010248
15714017084
15714022638
15714026178
15714032708
15714039117
15714046136
15714052728
15714058954
15714063958
15714069635
15714075006
15714082330
15714087152
15714092279
15714098931
15714105401
15714111138
15714116387
15714121881
15714127313
15714134271
15714139154
15714145013
15714151544
15714158502
15714164544
15714170037
15714177422
15714183099
15714188165
15714193414
15714198846
15714205926
15714211602
15714217584
15714225579
15714230035
15714237298
15714242913
15714249383
15714258721
15714264458
15714268792
15714274956
15714280938
15714288750
15714294121
15714301446
15714307305
15714313164
15714318047
15714325371
15714331719
15714340081
15714345452
15714352532
15714358818
15714366692
15714371880
15714377495
15714384758
15714389153
15714395684
15714399102
15714405876
15714410698
15714416680
15714423699
15714429009
15714435112
15714441155
15714444390
15714451592
15714457329
15714464226
15714469170
15714476555
15714481377
15714486504
15714494255
15714498833
15714506157
15714511284
15714517326
15714524895
15714531242
15714535393
15714541435
15714547905
15714554130
15714560722
15714565483
15714572136
15714576530
15714581718
15714588554
15714594169
15714599968
15714605888
15714614494
15714620842
15714625175
15714631035
15714636894
15714644157
15714650139
15714656059
15714661247
15714668083
15714673210
15714679252
15714684074
15714689933
15714695854
15714701042
15714710197
15714715812
15714720756
15714727958
15714732536
15714738761
15714744865
15714751151
15714756400
15714762931
15714769462
15714774284
15714780692
15714786125
15714792594
15714798820
15714804313
15714810172
15714816947
15714822135
15714830497
15714836295
15714842521
15714847160
15714854362
15714860343
15714869315
15714874930
15714882865
15714887931
15714895011
15714900199
15714906547
15714914847
15714920218
15714928885
15714935599
15714939933
15714946891
15714951468
15714956595
15714963797
15714970939
15714979117
15714985953
15714992972
15714997794
15715003592
15715007498
15715013480
15715018912
15715025260
15715029227
15715035147
15715039786
15715045889
15715051261
15715056937
15715064627
15715070059
15715076041
15715081412
15715086112
15715091727
15715096915
15715104178
15715108939
15715116629
15715121939
15715127982
15715130850
15715138296
15715145071
15715150931
15715156668
15715162955
15715167593
15715174307
15715178702
15715185354
15715189810
15715196341
15715203787
15715211661
15715215323
15715224417
15715229300
15715234793
15715239493
15715246756
15715251394
15715259573
15715265799
15715271780
15715276114
15715283071
15715287344
15715293753
15715299002
15715306631
15715311758
15715318350
15715322744
15715328115
15715335317
15715340811
15715345999
15715354177
15715359060
15715365591
15715369863
15715374929
15715381704
15715386831
15715394155
15715400198
15715407888
15715414114
15715419302
15715423574
15715431020
15715436208
15715441335
15715447744
15715453725
15715458425
15715465383
15715470998
15715476797
15715482046
15715487661
15715492849
15715501455
15715507192
15715513357
15715518728
15715525564
15715530019
15715537710
15715542714
15715549306
15715556325
15715562429
15715566884
15715572194
15715579946
15715585988
15715594106
15715599843
15715606252
15715612233
15715616567
15715623403
15715627919
15715633046
15715639638
15715646413
15715651235
15715657399
15715663564
15715666676
15715672719
15715677541
15715684194
15715689137
15715695851
15715700368
15715706838
15715712636
15715718373
15715722401
15715729115
15715735768
15715742970
15715749196
15715755299
15715759511
15715766469
15715771229
15715778187
15715784779
15715791920
15715797658
15715803517
15715812428
15715816090
15715823353
15715829579
15715834889
15715840321
15715845509
15715848500
15715856251
15715861439
15715869252
15715872425
15715881031
15715885731
15715891835
15715898548
15715904713
15715907582
15715914234
15715919728
15715927845
15715933155
15715939747
15715944203
15715950489
15715955067
15715960438
15715969105
15715975636
15715980396
15715985645
15715991627
15715998402
15716003895
15716008411
15716014393
15716021900
15716028736
15716034107
15716039722
15716044605
15716051258
15716055897
15716062733
15716068653
15716075977
15716080799
15716086292
15716092945
15716098987
15716104603
15716109852
15716115833
15716125843
15716131763
15716137561
15716145374
15716149891
15716154590
15716161304
15716166553
15716178211
15716186573
15716192859
15716200061
15716204578
15716210254
15716215137
15716221546
15716226306
15716231739
15716237598
15716241260
15716248706
15716254688
15716259509
15716266223
15716270496
15716277759
15716282886
15716288013
15716293079
15716298206
15716303577
15716311694
15716317615
15716323962
15716329395
15716334644
15716339587
15716344897
15716351245
15716356921
15716365893
15716371387
15716376452
15716381824
15716386828
15716393847
15716399768
15716406421
15716411303
15716416736
15716422168
15716426989
15716434924
15716439502
15716444934
15716449450
15716457141
15716461169
15716468554
15716472338
15716477710
15716484240
15716489184
15716496325
15716502551
15716508593
15716514025
15716521228
15716525134
15716532031
15716537158
15716543749
15716548815
15716555712
15716560107
15716567492
15716571887
15716581347
15716587267
15716593188
15716595446
15716606188
15716612719
15716617968
15716622301
15716629687
15716634814
15716640551
15716647021
15716653979
15716660448
15716666430
15716671618
15716676867
15716682421
15716688402
15716695910
15716702074
15716706896
15716711046
15716718187
15716722887
15716732470
15716737230
15716743212
15716750353
15716756945
15716761461
15716767870
15716774584
15716782457
15716788317
15716795214
15716801683
15716809435
15716814196
15716819017
15716825182
15716830614
15716835497
15716841234
15716849291
15716856859
15716862901
15716867174
15716874986
15716880174
15716886278
15716892564
15716898058
15716904710
15716910997
15716915941
15716921739
15716927110
15716934129
15716939867
15716945726
15716951402
15716958848
15716964586
15716968980
15716976671
15716981859
15716990037
15716995530
15717000963
15717006151
15717012254
15717018113
15717024339
15717030320
15717036851
15717041673
15717047410
15717052964
15717060228
15717065355
15717072984
15717077623
15717084092
15717090074
15717096116
15717101670
15717106736
15717114549
15717119737
15717125901
15717132737
15717138291
15717143174
15717149583
15717154649
15717160691
15717166367
15717173264
15717178452
15717184129
15717189622
15717196153
15717201463
15717207322
15717212876
15717219163
15717225571
15717231492
15717236802
15717242051
15717249436
15717256333
15717261216
15717268052
15717273545
15717279038
15717287339
15717292893
15717299058
15717305955
15717311875
15717320908
15717325181
15717332016
15717338852
15717345627
15717349411
15717357773
15717364243
15717374314
15717382248
15717388169
15717392624
15717401902
15717405869
15717411667
15717417771
15717424607
15717435105
15717440781
15717448166
15717452744
15717461044
15717465073
15717471848
15717476486
15717483139
15717488144
15717494797
15717500961
15717506577
15717513657
15717518845
15717523178
15717530136
15717537643
15717543320
15717548263
15717554672
15717562118
15717566818
15717572861
15717579147
15717585251
15717591965
15717596725
15717603073
15717609543
15717616256
15717622055
15717628708
15717634079
15717639755
15717646591
15717653732
15717660019
15717667343
15717674179
15717681625
15717687362
15717693527
15717699874
15717705917
15717709091
15717715621
15717720809
15717726852
15717733383
15717739791
15717742782
15717750717
15717753951
15717761764
15717766342
15717772872
15717777694
15717782699
15717789657
15717795150
15717802779
15717807357
15717814132
15717819442
15717825668
15717831649
15717838119
15717842635
15717848617
15717855575
15717862472
15717865462
15717874434
15717881087
15717886947
15717890487
15717898055
15717902999
15717909652
15717916732
15717922591
15717927230
15717931746
15717939437
15717944869
15717950423
15717956527
15717961837
15717967269
15717974288
15717977645
15717985152
15717991988
15717999373
15718006087
15718010482
15718016829
15718020613
15718028426
15718032942
15718043746
15718050643
15718059310
15718064864
15718071517
15718077498
15718082442
15718088057
15718095198
15718101424
15718108626
15718114973
15718121382
15718127608
15718132552
15718138960
15718144453
15718150740
15718156294
15718163801
15718169111
15718174544
15718181013
15718185713
15718191633
15718195357
15718201887
15718208906
15718213789
15718218733
15718225264
15718230696
15718235457
15718241072
15718245955
15718251631
15718258039
15718263044
15718267866
15718273664
15718279402
15718284651
15718289411
15718294355
15718301069
15718305830
15718312361
