15789474349
15789479354
15789484908
15789489913
15789494612
15789501143
15789506148
15789511580
15789516280
15789520919
15789526412
15789530806
15789535262
15789539900
15789545027
15789549666
15789554671
15789560652
15789565657
15789571456
15789576460
15789582625
15789587752
15789592268
15789597579
15789603560
15789608138
15789613326
15789617598
15789623701
15789628096
15789633223
15789639449
15789644575
15789650862
15789658797
15789664534
15789670821
15789676802
15789683394
15789689741
15789700239
15789706587
15789710249
15789720198
15789727583
15789733564
15789743269
15789748823
15789754500
15789762861
15789768354
15789775557
15789782576
15789787947
15789795454
15789800154
15789807051
15789813093
15789819136
15789826155
15789831648
15789838606
15789844648
15789849958
15789857099
15789862104
15789871137
15789876997
15789885175
15789889631
15789897993
15789906049
15789912275
15789921064
15789924970
15789932233
15789938947
15789945722
15789951704
15789956769
15789966779
15789972089
15789978071
15789983686
15789992414
15789996381
15790003950
15790010724
15790016767
15790024152
15790029828
15790037031
15790043744
15790051069
15790059613
15790068036
15790074384
15790082685
15790089154
15790095990
15790100995
15790109174
15790114667
15790123212
15790129010
15790135663
15790142926
15790149030
15790157269
15790164350
15790171491
15790176618
15790183392
15790189740
15790195294
15790202985
15790209454
15790214581
15790222333
15790227826
15790234296
15790240216
15790247052
15790251691
15790257916
15790264508
15790271161
15790275983
15790283734
15790290875
15790297284
15790304120
15790308880
15790315167
15790322125
15790329144
15790335248
15790344159
15790350384
15790357098
15790361859
15790368267
15790375775
15790382550
15790390423
15790394818
15790402874
15790409771
15790415020
15790422344
15790428448
15790439862
15790446881
15790452740
15790461773
15790468365
15790475384
15790480816
15790489056
15790496014
15790503155
15790509258
15790514690
15790522869
15790527386
15790535564
15790539898
15790548931
15790553631
15790561260
15790570232
15790576458
15790585979
15790591717
15790600078
15790606304
15790614239
15790620098
15790627178
15790634319
15790642009
15790648540
15790657146
15790664531
15790671184
15790678508
15790684673
15790691814
15790700115
15790707622
15790713665
15790720317
15790728923
15790733684
15790742168
15790751140
15790758586
15790765300
15790771343
15790779094
15790784831
15790792827
15790798259
15790807231
15790814006
15790822978
15790829509
15790837382
15790844096
15790850261
15790856547
15790867656
15790875468
15790882365
15790888774
15790897807
15790903666
15790910136
15790916423
15790922282
15790928569
15790934977
15790940715
15790945964
15790952922
15790957438
15790964763
15790969035
15790975566
15790981425
15790987407
15790992778
15790999675
15791006816
15791011210
15791017619
15791022868
15791029887
15791035258
15791041300
15791045756
15791050700
15791057414
15791061320
15791068583
15791074870
15791080607
15791085734
15791090617
15791095438
15791103800
15791108317
15791115397
15791121256
15791128764
15791133463
15791137186
15791145975
15791150858
15791158488
15791162211
15791169291
15791175638
15791181254
15791186442
15791192728
15791199137
15791205240
15791210001
15791215372
15791222025
15791227457
15791233927
15791238871
15791244059
15791247477
15791256510
15791261087
15791267862
15791274515
15791279947
15791286112
15791291056
15791297953
15791304666
15791310892
15791317545
15791322855
15791329203
15791333841
15791337931
15791346964
15791351358
15791359659
15791363504
15791369669
15791378031
15791384500
15791390360
15791396524
15791402811
15791410501
15791416849
15791423868
15791429483
15791434915
15791439737
15791446817
15791451944
15791459329
15791463907
15791469949
15791475564
15791482889
15791487649
15791491311
15791498453
15791504373
15791511453
15791517557
15791523660
15791528970
15791534585
15791540017
15791547647
15791552530
15791558267
15791564370
15791569925
15791576272
15791581277
15791587442
15791591897
15791600991
15791605447
15791614785
15791621438
15791627969
15791633340
15791639138
15791646768
15791652993
15791659707
15791664285
15791670449
15791674355
15791682656
15791685647
15791692971
15791698403
15791704446
15791710854
15791715859
15791719399
15791728066
15791731972
15791739541
15791746255
15791752236
15791757790
15791763039
15791768105
15791774392
15791780190
15791784829
15791791604
15791796670
15791802590
15791806984
15791811501
15791818276
15791822976
15791829628
15791833962
15791845375
15791850258
15791857827
15791860756
15791867653
15791873818
15791880288
15791885170
15791890663
15791897499
15791904518
15791910744
15791916115
15791922463
15791928200
15791935158
15791939797
15791947731
15791952126
15791961281
15791967751
15791974220
15791979775
15791987648
15792002846
15792010902
15792019325
15792026344
15792032997
15792040138
15792043678
15792050819
15792055763
15792061134
15792064308
15792071754
15792079567
15792085243
15792091163
15792095924
15792101478
15792107216
15792115638
15792122780
15792134010
15792145607
15792154152
15792162330
15792174537
15792182411
15792192787
15792201271
15792209571
15792217628
15792223121
15792231666
15792240638
15792247474
15792256507
15792263282
15792273231
15792279945
15792285011
15792296668
15792303382
15792309303
15792318153
15792324744
15792329566
15792340919
15792345557
15792354346
15792359656
15792368873
15792376075
15792383216
15792390174
15792399085
15792405494
15792413306
15792420813
15792428199
15792433936
15792441687
15792449805
15792458472
15792464820
15792473243
15792480933
15792487403
15792494971
15792502722
15792509619
15792519324
15792526526
15792531409
15792542212
15792547339
15792557654
15792562659
15792572852
15792580237
15792587073
15792595984
15792602087
15792608984
15792618018
15792624243
15792632849
15792639807
15792649573
15792656836
15792663550
15792671850
15792677038
15792686560
15792694006
15792702429
15792709509
15792718664
15792726355
15792733679
15792740210
15792749060
15792755285
15792764013
15792772985
15792780737
15792789099
15792795568
15792803686
15792813757
15792821020
15792830358
15792839758
15792850500
15792857458
15792866735
15792873205
15792881200
15792889562
15792897863
15792904272
15792912023
15792920141
15792926305
15792934606
15792943151
15792949743
15792954687
15792967077
15792975683
15792982152
15792990026
15792999853
15793009496
15793017980
15793026098
15793033300
15793038732
15793050206
15793055394
15793066564
15793071508
15793081151
15793088048
15793096227
15793104222
15793114537
15793119786
15793128942
15793136327
15793143834
15793149938
15793159093
15793168981
15793175694
15793184728
15793192662
15793198705
15793205846
15793213963
15793220616
15793229466
15793238927
15793245457
15793254246
15793262303
15793267186
15793274998
15793282261
15793291722
15793299046
15793308079
15793315770
15793323826
15793330540
15793338047
15793347264
15793353672
15793359532
15793370030
15793376500
15793385105
15793391392
15793400486
15793406407
15793415257
15793423557
15793432163
15793438816
15793443577
15793453770
15793458775
15793469761
15793474400
15793484531
15793489842
15793500278
15793507603
15793515476
15793522312
15793528782
15793533543
15793539280
15793544468
15793552402
15793556370
15793565464
15793570286
15793575168
15793580356
15793586826
15793594394
15793600254
15793607090
15793611118
15793616855
15793622410
15793624424
15793632480
15793639988
15793645237
15793651096
15793656040
15793661533
15793666233
15793677219
15793681308
15793689121
15793695835
15793702304
15793708408
15793713840
15793720493
15793725437
15793732028
15793737338
15793745151
15793751438
15793758029
15793765598
15793772373
15793779208
15793787143
15793793857
15793799716
15793806125
15793813510
15793818881
15793824435
15793830661
15793839145
15793844943
15793850192
15793853793
15793860141
15793863132
15793871737
15793875400
15793884982
15793891757
15793897799
15793904818
15793908542
15793916049
15793920565
15793927096
15793932895
15793937960
15793943698
15793949008
15793954013
15793959201
15793966464
15793971408
15793977938
15793983248
15793990145
15793995700
15794000643
15794006381
15794011447
15794020785
15794025485
15794032199
15794037631
15794044344
15794050570
15794055758
15794060519
15794068636
15794073824
15794077792
15794087496
15794091402
15794097933
15794103365
15794110384
15794116183
15794121371
15794126131
15794133578
15794139254
15794145418
15794150301
15794156649
15794161410
15794168123
15794175081
15794179476
15794186922
15794190584
15794196871
15794203097
15794208773
15794213533
15794220491
15794225313
15794231722
15794236910
15794244295
15794248934
15794255098
15794262361
15794267549
15794274263
15794281221
15794286959
15794290804
15794297274
15794303499
15794311067
15794315340
15794321993
15794327303
15794332735
15794338045
15794345186
15794349153
15794355440
15794360872
15794370943
15794376741
15794386507
15794390291
15794399629
15794405305
15794415681
15794420259
15794429170
15794431612
15794439973
15794444124
15794452119
15794455781
15794462312
15794465913
15794473543
15794477022
15794483125
15794488252
15794494844
15794500276
15794507539
15794513887
15794519075
15794523774
15794530427
15794536103
15794541780
15794546846
15794554353
15794560517
15794566255
15794571260
15794577180
15794583711
15794588410
15794594087
15794600068
15794605195
15794613130
15794618989
15794625703
15794630158
15794636994
15794641633
15794648774
15794654023
15794661103
15794667573
15794673371
15794678193
15794684052
15794690278
15794694978
15794699799
15794707001
15794713593
15794719941
15794726166
15794732209
15794738068
15794744477
15794752900
15794760224
15794770051
15794777497
15794786530
15794796235
15794805207
15794812836
15794821137
15794829499
15794836640
15794845307
15794849701
15794858857
15794863068
15794871613
15794881073
15794888703
15794891510
15794902191
15794907074
15794917267
15794922211
15794930268
15794937836
15794946869
15794954315
15794962921
15794967804
15794976837
15794983246
15794991058
15794998749
15795006256
15795012543
15795021271
15795028229
15795034393
15795042938
15795049530
15795056000
15795067779
15795073944
15795082428
15795089569
15795098358
15795106170
15795111908
15795119415
15795126800
15795134979
15795142120
15795150299
15795155120
15795164154
15795168731
15795177642
15795186065
15795194305
15795201324
15795209442
15795217437
15795226592
15795233856
15795242156
15795248870
15795259857
15795266998
15795274932
15795281524
15795289275
15795298125
15795306121
15795312835
15795321990
15795329192
15795336150
15795344146
15795352019
15795360503
15795367583
15795374236
15795381560
15795391814
15795398406
15795408538
15795415496
15795420623
15795430327
15795436797
15795447417
15795453215
15795463286
15795470549
15795479094
15795485991
15795493865
15795501738
15795509612
15795517119
15795525542
15795532195
15795541045
15795547881
15795557158
15795564299
15795573454
15795581938
15795592741
15795600798
15795609465
15795618986
15795627898
15795634489
15795643095
15795649687
15795657744
15795667875
15795675505
15795684233
15795691618
15795700224
15795709623
15795716826
15795726530
15795733122
15795739714
15795748442
15795757109
15795764799
15795774015
15795781645
15795790068
15795796720
15795805204
15795810575
15795821928
15795830290
15795836820
15795844511
15795853788
15795861478
15795871732
15795879179
15795888395
15795895658
15795903898
15795912565
15795915494
15795928617
15795938993
15795946317
15795955533
15795962125
15795969449
15795979032
15795986844
15795995389
15796002836
15796010282
15796019498
15796025907
15796034818
15796041105
15796049649
15796057950
15796065152
15796071073
15796082486
15796085477
15796096952
15796102384
15796113065
15796118619
15796127835
15796135343
15796142301
15796149136
15796157864
15796165616
15796170926
15796175259
15796180325
15796186307
15796192654
15796198209
15796205533
15796210965
15796217129
15796221829
15796228055
15796232510
15796239224
15796243924
15796250394
15796255581
15796262601
15796268033
15796274685
15796280118
15796288113
15796293362
15796300564
15796305752
15796313015
15796318142
15796324612
15796329434
15796338467
15796344387
15796349087
15796353604
15796360318
15796365200
15796370755
15796376248
15796383816
15796387600
15796395901
15796399807
15796408596
15796412564
15796419827
15796424099
15796431240
15796437954
15796444851
15796448757
15796455654
15796460964
15796467983
15796472622
15796479519
15796485928
15796491421
15796497890
15796503323
15796509670
15796515530
15796519985
15796527920
15796531582
15796539699
15796544094
15796551540
15796557705
15796565334
15796572231
15796580227
15796586147
15796592006
15796598232
15796604397
15796611232
15796615322
15796619716
15796627407
15796632167
15796637661
15796643154
15796650173
15796655117
15796661037
15796665309
15796671718
15796676845
15796680141
15796690151
15796695888
15796702846
15796708278
15796712734
15796718044
15796724208
15796727748
15796736171
15796740260
15796747707
15796753139
15796759547
15796765956
15796771816
15796777736
15796783778
15796788783
15796795680
15796801356
15796806972
15796813502
15796821376
15796827540
15796834315
15796840968
15796843043
15796853663
15796856044
15796864650
15796871425
15796879786
15796882228
15796892116
15796897181
15796906215
15796909999
15796917079
15796922450
15796929713
15796937403
15796942652
15796952906
15796957728
15796961329
15796968348
15796976405
15796982814
15796988917
15796994349
15797001856
15797006617
15797010279
15797018214
15797022364
15797030726
15797034571
15797043604
15797047389
15797054286
15797059657
15797065577
15797071864
15797078944
15797084925
15797090540
15797095179
15797101405
15797106409
15797112269
15797117091
15797125513
15797130884
15797137476
15797142298
15797147425
15797151758
15797157313
15797164149
15797173792
15797180018
15797187647
15797193445
15797199549
15797206751
15797213282
15797220484
15797227930
15797233301
15797238794
15797244104
15797249964
15797255335
15797262171
15797268030
15797273706
15797279261
15797286463
15797290247
15797298548
15797304834
15797309717
15797316004
15797324365
15797328211
15797334924
15797340723
15797347131
15797348962
15797358789
15797365137
15797371423
15797377100
15797383508
15797390100
15797399744
15797408838
15797416345
15797425561
15797430261
15797439660
15797443750
15797454370
15797458459
15797468347
15797477563
15797483362
15797490808
15797498254
15797504663
15797512292
15797519250
15797526208
15797535119
15797544458
15797551538
15797557580
15797564111
15797570825
15797575708
15797584313
15797590783
15797597802
15797602990
15797612023
15797619897
15797627038
15797633508
15797642297
15797649987
15797655114
15797662499
15797669701
15797677453
15797684533
15797692284
15797700036
15797706994
15797713219
15797720910
15797726769
15797734826
15797741479
15797749474
15797760094
15797767724
15797775780
15797782982
15797789574
15797794579
15797805687
15797810326
15797820458
15797825951
15797834191
15797841637
15797851708
15797857628
15797867333
15797874962
15797885216
15797891319
15797901573
15797907677
15797916832
15797924889
15797933556
15797941429
15797949120
15797955956
15797963951
15797971214
15797980858
15797988548
15797998497
15798004112
15798012779
15798020653
15798029930
15798037071
15798045189
15798052757
15798061668
15798067100
15798076683
15798084007
15798092308
15798099266
15798105919
15798113487
15798122215
15798129600
15798137962
15798146202
15798155784
15798163475
15798172203
15798179649
15798188621
15798195640
15798204490
15798212303
15798219016
15798227805
15798236228
15798242698
15798252158
15798258506
15798267234
15798274070
15798278953
15798290183
15798295249
15798304710
15798312705
15798321189
15798328391
15798336875
15798344504
15798353232
15798359763
15798367454
15798373740
15798384299
15798390647
15798399497
15798406333
15798415854
15798422629
15798430503
15798437155
15798444907
15798455100
15798460654
15798470298
15798477255
15798484885
15798492575
15798499594
15798506125
15798516379
15798523215
15798532919
15798539755
15798547690
15798556723
15798564841
15798571249
15798576620
15798588339
15798593466
15798603293
15798611655
15798617697
15798624472
15798633566
15798641684
15798652975
15798658407
15798668966
15798676108
15798684469
15798691244
15798699179
15798709738
15798719015
15798726156
15798733053
15798742392
15798749411
15798756369
15798762289
15798767965
15798775167
15798779135
15798787924
15798791464
15798799032
15798802328
15798811361
15798815878
15798825033
15798832296
15798838033
15798842977
15798848898
15798854757
15798859579
15798865133
15798871175
15798875265
15798880636
15798885213
15798891195
15798896383
15798901632
15798909933
15798916097
15798919942
15798925497
15798929952
15798935811
15798941732
15798948873
15798953328
15798959310
15798964681
15798970907
15798976217
15798982992
15798989461
15798997457
15799000814
15799008992
15799014791
15799020284
15799026326
15799030965
15799037923
15799043050
15799050374
15799054525
15799061971
15799066915
15799074178
15799080037
15799088277
15799092183
15799099385
15799102742
15799109151
15799112508
15799119771
15799126607
15799131612
15799138997
15799144002
15799150899
15799155660
15799163533
15799168660
15799174458
15799179829
15799185872
15799190511
15799196553
15799201741
15799206563
15799212666
15799220540
15799226765
15799231038
15799237385
15799244893
15799250996
15799257039
15799259602
15799268879
15799273152
15799282856
15799289875
15799294575
15799299763
15799306538
15799312153
15799318989
15799322895
15799329365
15799334980
15799341267
15799346150
15799352253
15799357136
15799362873
15799368122
15799374958
15799381367
15799388264
15799393879
15799399128
15799404133
15799411945
15799417561
15799422688
15799428974
15799433979
15799438252
15799444233
15799449726
15799456440
15799462849
15799468464
15799472736
15799478107
15799483967
15799488728
15799495197
15799502766
15799507404
15799513447
15799519428
15799524982
15799530353
15799535541
15799541889
15799549885
15799556721
15799562397
15799568439
15799570881
15799580463
15799586994
15799591755
15799598346
15799602985
15799609150
15799614460
15799620380
15799626972
15799632160
15799637897
15799644428
15799651752
15799659259
15799669330
15799677020
15799685810
15799690936
15799696247
15799702533
15799708087
15799714801
15799720661
15799725604
15799732318
15799737201
15799740985
15799750018
15799754169
15799762531
15799768878
15799773639
15799777789
15799786029
15799790179
15799798175
15799805377
15799812091
15799817523
15799822467
15799828570
15799834613
15799840350
15799845233
15799853045
15799858294
15799865436
15799871966
15799881122
15799887713
15799894305
15799901446
15799908526
15799913348
15799919085
15799925189
15799932391
15799939044
15799943682
15799953082
15799960894
15799968646
15799973284
15799982684
15799987567
15799996478
15800003375
15800012103
15800016863
15800028704
15800033465
15800041888
15800046587
15800057452
15800062762
15800072161
15800076617
15800086321
15800092547
15800101702
15800106524
15800115069
15800122332
15800129595
15800136736
15800144732
15800152178
15800160235
15800166826
15800174578
15800181231
15800187395
15800197222
15800205645
15800213091
15800220476
15800229387
15800235674
15800241472
15800249712
15800255998
15800263994
15800273393
15800280901
15800287187
15800294328
15800302080
15800308611
15800316423
15800325029
15800330766
15800338823
15800344743
15800353532
15800359514
15800366899
15800374528
15800381303
15800389299
15800397111
15800403764
15800411760
15800417802
15800426225
15800432634
15800443986
15800451555
15800458757
15800467241
15800473710
15800482499
15800487382
15800498674
15800503740
15800513932
15800521928
15800528215
15800535783
15800544267
15800551774
15800559953
15800566239
15800576005
15800583207
15800592118
15800598466
15800606584
15800614091
15800619401
15800631181
15800636369
15800646256
15800654740
15800662003
15800669694
15800678666
15800688187
15800699662
15800705399
15800716386
15800725602
15800731766
15800738724
15800748612
15800756424
15800762528
15800769669
15800779068
15800786515
15800794571
15800801957
15800810807
15800816910
15800826004
15800835160
15800844864
15800852127
15800860916
15800868302
15800875626
15800881546
15800891068
15800897415
15800906937
15800916031
15800922745
15800930985
15800938004
15800945938
15800953018
15800961685
15800971817
15800978409
15800986710
15800995254
15801001785
15801010513
15801018631
15801024673
15801032425
15801041946
15801050979
15801057022
15801063980
15801072891
15801079788
15801088882
15801096023
15801104568
15801111770
15801120620
15801127945
15801135452
15801141372
15801150039
15801156204
15801166641
15801176162
15801183486
15801189468
15801197708
15801205581
15801213088
15801221572
15801228530
15801237319
15801245315
15801253371
15801261062
15801267165
15801276321
15801282546
15801292007
15801300307
15801308608
15801312758
15801318435
15801324416
15801329421
15801335219
15801342910
15801349379
15801354934
15801359755
15801365798
15801370437
15801375380
15801380324
15801389785
15801396071
15801403212
15801409926
15801416762
15801424453
15801430800
15801437087
15801444411
15801450942
15801456191
15801459548
15801466506
15801471266
15801478041
15801483840
15801489577
15801492934
15801499342
15801502333
15801509230
15801514723
15801520827
15801528212
15801534499
15801539565
15801544508
15801549635
15801555006
15801560439
15801565565
15801570631
15801577284
15801583144
15801589003
15801594008
15801599440
15801604445
15801609816
15801617201
15801623793
15801628737
15801632948
15801638441
15801643995
15801649000
15801655287
15801661757
15801667982
15801673231
15801678663
15801683790
15801690199
15801695082
15801700636
15801706556
15801712904
15801718336
15801723890
15801728468
15801734388
15801737867
15801745558
15801749220
15801757826
15801764417
15801768995
15801773634
15801781812
15801785352
15801792066
15801803785
15801809156
15801815626
15801822157
15801828260
15801834242
15801840284
15801845472
15801855177
15801860242
15801866468
15801872877
15801878492
15801884107
15801890211
15801895399
15801903028
15801908155
15801914625
15801920911
15801927381
15801932691
15801938794
15801946668
15801953382
15801958143
15801963208
15801969373
15801975293
15801981824
15801985791
15801994153
15802001538
15802007520
15802011731
15802019788
15802026990
15802032727
15802039380
15802044141
15802050061
15802055799
15802061109
15802065381
15802071118
15802075330
15802082105
15802086987
15802091809
15802097547
15802104138
15802110242
15802116101
15802119885
15802128186
15802131848
15802138074
15802143567
15802149121
15802153577
15802158765
15802166821
15802171216
15802177014
15802181592
15802186902
15802191113
15802197583
15802203564
15802210766
15802216931
15802221692
15802226636
15802232434
15802237744
15802243176
15802248791
15802256299
15802262463
15802266919
15802272473
15802279675
15802284558
15802290478
15802295788
15802302990
15802307080
15802313977
15802319836
15802324597
15802330212
15802336560
15802341748
15802347912
15802353710
15802360058
15802365246
15802371105
15802375012
15802383129
15802387829
15802395275
15802401928
15802406262
15802411694
15802417309
15802422558
15802428356
15802436047
15802441601
15802448437
15802457653
15802464611
15802470592
15802478405
15802486278
15802496960
15802504101
15802512096
15802520885
15802529125
15802537182
15802543407
15802551342
15802556591
15802567516
15802576549
15802585827
15802591259
15802602916
15802607921
15802617199
15802624523
15802634655
15802640392
15802651378
15802656322
15802665416
15802672557
15802680431
15802690318
15802698253
15802706249
15802714488
15802720897
15802729625
15802736644
15802745616
15802752330
15802762157
15802768870
15802777476
15802784312
15802789256
15802800426
15802805430
15802814952
15802822581
15802831675
15802837657
15802847728
15802855479
15802863841
15802870860
15802879344
15802887645
15802897227
15802904551
15802911204
15802919627
15802929881
15802937083
15802945079
15802953990
15802962351
15802968577
15802973277
15802984873
15802989573
15802999522
15803007517
15803014231
15803021555
15803029917
15803037241
15803045298
15803051951
15803060984
15803068735
15803076975
15803086802
15803095164
15803102488
15803111521
15803118967
15803127451
15803135019
15803143015
15803149912
15803159922
15803167734
15803175852
15803181894
15803191233
15803197641
15803206186
15803212229
15803223459
15803229319
15803237070
15803245371
15803253794
15803260080
15803268198
15803276193
15803281564
15803292185
15803300607
15803306894
15803313486
15803323068
15803330209
15803337106
15803346445
15803353891
15803361093
15803369882
15803376840
15803385507
15803391672
15803399911
15803408212
15803416574
15803425424
15803432504
15803441293
15803449899
15803456247
15803464486
15803470773
15803479867
15803488290
15803494943
15803503488
15803508676
15803517343
15803524118
15803533029
15803540658
15803550057
15803557382
15803566903
15803574349
15803581796
15803588998
15803595956
15803605599
15803615853
15803623177
15803629891
15803636422
15803645943
15803652779
15803661446
15803669381
15803677865
15803686227
15803693917
15803699898
15803708565
15803717232
15803724984
15803733285
15803742562
15803751351
15803758919
15803765023
15803769783
15803780465
15803788521
15803794503
15803802803
15803812508
15803822518
15803831368
15803837837
15803848702
15803856514
15803862862
15803866890
15803874275
15803879646
15803886604
15803890022
15803898872
15803902107
15803910957
15803917427
15803923836
15803929512
15803935249
15803941780
15803946846
15803953377
15803957588
15803964485
15803970100
15803976936
15803982246
15803988106
15803993172
15803999153
15804004829
15804012581
15804019050
15804025520
15804030647
15804036445
15804041328
15804046821
15804053901
15804059272
15804066719
15804071785
15804077949
15804084785
15804091377
15804096870
15804103157
15804110603
15804117683
15804123786
15804129768
15804136909
15804142097
15804146369
15804154731
15804160774
15804166267
15804171760
15804176826
15804180854
15804187690
15804192573
15804197639
15804203803
15804208259
15804214118
15804218452
15804224494
15804231513
15804236335
15804245734
15804251960
15804258308
15804262519
15804268989
15804273017
15804278937
15804284431
15804292304
15804297126
15804303046
15804308417
15804313727
15804319098
15804323005
15804329047
15804336188
15804340644
15804346991
15804351752
15804358039
15804364142
15804369819
15804378302
15804385749
15804392279
15804398505
15804403876
15804410651
15804415534
15804423163
15804429877
15804437018
15804442755
15804448554
15804453314
15804459113
15804463690
15804470465
15804476996
15804483649
15804489203
15804497748
15804505743
15804510809
15804518805
15804524420
15804530219
15804536139
15804541693
15804545843
15804551642
15804557318
15804562384
15804568732
15804576605
15804581549
15804587713
15804592230
15804597967
15804604071
15804609198
15804615301
15804620550
15804627752
15804633185
15804639349
15804644903
15804650213
15804655584
15804662237
15804667669
15804675909
15804681646
15804688299
15804694342
15804700262
15804706182
15804713934
15804721685
15804728155
15804736151
15804742010
15804747137
15804753546
15804759588
15804767767
15804773321
15804781255
15804785162
15804792364
15804799871
15804806036
15804809820
15804816839
15804820257
15804829229
15804836431
15804840581
15804845708
15804852178
15804857793
15804863164
15804870183
15804876531
15804881414
15804887517
15804891363
15804897527
15804902410
15804907659
15804916143
15804920232
15804926275
15804931646
15804937139
15804942510
15804946721
15804952337
15804958440
15804964299
15804969121
15804975103
15804980901
15804985540
15804991948
15804995793
15805005010
15805011724
15805016240
15805021733
15805027837
15805034673
15805041204
15805050481
15805057012
15805062200
15805073064
15805080632
15805087163
15805095464
15805102055
15805111577
15805120427
15805127873
15805135625
15805142888
15805150822
15805157109
15805164494
15805174321
15805182927
15805190007
15805196782
15805205449
15805213627
15805221562
15805227665
15805238347
15805246769
15805254521
15805260502
15805268681
15805275761
15805283818
15805292240
15805299198
15805307743
15805315617
15805321659
15805330448
15805337467
15805345829
15805354069
15805360722
15805369755
15805376103
15805384892
15805391361
15805396000
15805406742
15805415409
15805423954
15805431095
15805439457
15805446232
15805455082
15805463444
15805469730
15805479130
15805487614
15805495487
15805501713
15805509525
15805517948
15805524845
15805531193
15805543155
15805550480
15805559879
15805566043
15805574955
15805581485
15805591739
15805599430
15805608280
15805615543
15805624271
15805630863
15805639347
15805646610
15805653140
15805662357
15805669681
15805677188
15805686343
15805693179
15805699710
15805706790
15805714481
15805723575
15805731754
15805737552
15805746524
15805753116
15805762820
15805767703
15805776370
15805783633
15805794436
15805803592
15805809939
15805817874
15805825992
15805831363
15805842349
15805848391
15805859134
15805866824
15805873233
15805881167
15805889346
15805898013
15805903994
15805915042
15805922000
15805931460
15805939517
15805946780
15805952883
15805961001
15805967593
15805980532
15805987612
15805995486
15806002139
15806010989
15806017764
15806027712
15806035403
15806044680
15806050112
15806059695
15806067324
15806073427
15806080019
15806090334
15806097780
15806108278
15806116335
15806122622
15806127382
15806138796
15806144228
15806156252
15806164736
15806173464
15806182070
15806188662
15806197329
15806206240
15806209780
15806221743
15806227297
15806238588
15806246157
15806254091
15806261476
15806269289
15806275636
15806281984
15806293153
15806299928
15806307436
15806315309
15806323061
15806329897
15806338319
15806346498
15806354311
15806363100
15806370607
15806377809
15806383363
15806387025
15806393251
15806400026
15806407228
15806413453
15806419496
15806425416
15806431398
15806434816
15806442445
15806449708
15806455323
15806461183
15806467469
15806473756
15806478639
15806485597
15806490480
15806498231
15806504762
15806510377
15806517152
15806524415
15806527833
15806535157
15806539430
15806546205
15806552491
15806557862
15806563111
15806567262
15806573060
15806578919
15806585328
15806592347
15806598267
15806603089
15806609498
15806616334
15806620667
15806628297
15806634644
15806638673
15806645753
15806649171
15806656190
15806662049
15806666260
15806673157
15806679444
15806685853
15806690491
15806697205
15806703431
15806709351
15806714295
15806721802
15806728028
15806732300
15806738892
15806744507
15806749817
15806755738
15806761475
15806769104
15806772766
15806782898
15806787232
15806795960
15806800354
15806808716
15806816162
15806822998
15806828552
15806835449
15806839173
15806847168
15806850586
15806857849
15806863831
15806871155
15806877136
15806883484
15806888245
15806894287
15806900696
15806905579
15806910339
15806919189
15806926025
15806932556
15806936951
15806942871
15806949341
15806954285
15806960266
15806964050
15806971985
15806975891
15806984192
15806989868
15806996033
15807000244
15807007385
15807012695
15807019653
15807023620
15807031067
15807036010
15807041809
15807047363
15807053527
15807058044
15807066711
15807072082
15807077941
15807082397
15807090026
15807094909
15807100524
15807106689
15807112609
15807119506
15807125427
15807131286
15807136047
15807142211
15807147827
15807153686
15807157958
15807166442
15807170287
15807177795
15807183471
15807189452
15807196288
15807201171
15807206664
15807213012
15807218749
15807225036
15807230163
15807236510
15807241515
15807247192
15807255431
15807261108
15807266295
15807272826
15807277404
15807283446
15807289550
15807295287
15807301879
15807310729
15807316466
15807324035
15807329039
15807335387
15807342528
15807346190
15807354247
15807358886
15807369628
15807374327
15807380675
15807386168
15807393431
15807398436
15807406188
15807412474
15807422362
15807431151
15807436949
15807442137
15807448729
15807453856
15807460448
15807466673
15807474425
15807481627
15807487975
15807492491
15807498045
15807502562
15807509825
15807514647
15807521117
15807525511
15807532103
15807536803
15807543150
15807549254
15807553770
15807562315
15807565977
15807572996
15807576475
15807583922
15807588560
15807598265
15807603026
15807614256
15807619200
15807628904
15807636107
15807645140
15807652342
15807660765
15807668516
15807676451
15807684263
15807691832
15807698179
15807705747
15807715147
15807722837
15807729307
15807734312
15807745847
15807751219
15807762571
15807770750
15807776121
15807783811
15807790159
15807797483
15807805723
15807813413
15807821958
15807826841
15807836790
15807841672
15807850278
15807855222
15807865842
15807873594
15807881772
15807886655
15807895627
15807902097
15807908750
15807915769
15807924436
15807934263
15807941648
15807949094
15807956601
15807963742
15807972348
15807978696
15807986386
15807995786
15808004636
15808013974
15808017209
15808027463
15808036008
15808043576
15808052609
15808059201
15808066647
15808075742
15808081723
15808090390
15808097043
15808105283
15808114560
15808122067
15808128232
15808136288
15808143246
15808152463
15808162045
15808169247
15808178830
15808186642
15808193295
15808199093
15808212277
15808220761
15808228756
15808233883
15808243100
15808248105
15808259640
15808265011
15808274960
15808282589
15808290768
15808298153
15808306149
15808313107
15808321347
15808328915
15808338558
15808345455
15808353878
15808360592
15808369869
15808377438
15808382809
15808394283
15808403072
15808409420
15808414425
15808426449
15808431637
15808442196
15808447262
15808456600
15808464962
15808474117
15808482540
15808491573
15808499691
15808506405
15808513729
15808522701
15808531429
15808541622
15808548763
15808556087
15808563839
15808571834
15808578426
15808585628
15808594112
15808601802
15808611141
15808618892
15808625484
15808633846
15808640560
15808648982
15808655696
15808664058
15808672725
15808679866
15808687740
15808695491
15808703487
15808710139
15808718623
15808725398
15808734737
15808742183
15808751033
15808757564
15808762507
15808774165
15808777278
15808788875
15808796260
15808806392
15808811641
15808821406
15808828608
15808837153
15808845149
15808853022
15808859614
15808869075
15808875483
15808885127
15808892695
15808900508
15808909053
15808916255
15808923396
15808928340
15808940913
15808944087
15808955134
15808960505
15808970698
15808979365
15808989375
15808998164
15809004816
15809013361
15809020686
15809026545
15809032343
15809038691
15809046931
15809052058
15809058527
15809064631
15809069941
15809076716
15809082880
15809089411
15809094477
15809100519
15809108027
15809114802
15809120417
15809125483
15809129450
15809138666
15809143610
15809153376
15809158319
15809164606
15809169794
15809176142
15809181208
15809188227
15809193842
15809200373
15809205255
15809212213
15809218683
15809224298
15809229486
15809235224
15809242121
15809247797
15809253046
15809261774
15809266779
15809273737
15809278192
15809284479
15809289056
15809295465
15809301996
15809307794
15809314081
15809319391
15809325372
15809330682
15809336664
15809340509
15809348321
15809353876
15809360223
15809365716
15809371942
15809377435
15809385187
15809391168
15809397638
15809402704
15809409173
15809415643
15809422357
15809427179
15809431085
15809439508
15809443536
15809451898
15809457757
15809465387
15809469720
15809478448
15809483941
15809490045
15809495477
15809500848
15809505914
15809514215
15809519219
15809526055
15809531121
15809538690
15809544122
15809550591
15809557061
15809561456
15809569817
15809573968
15809580926
15809586297
15809592583
15809598565
15809605218
15809610711
15809617059
15809623406
15809630669
15809637749
15809646172
15809651910
15809658623
15809665459
15809669671
15809677544
15809684868
15809692681
15809696892
15809704522
15809709404
15809716301
15809720147
15809728386
15809734551
15809739067
15809744561
15809751274
15809756157
15809762200
15809766899
15809774590
15809780266
15809787163
15809791863
15809798210
15809804253
15809809197
15809814507
15809821099
15809826714
15809832329
15809836540
15809842156
15809848198
15809853264
15809859245
15809863152
15809871452
15809876579
15809882439
15809885796
15809893486
15809897026
15809905388
15809909904
15809919975
15809924187
15809932609
15809936088
15809942924
15809948051
15809954155
15809960869
15809966972
15809972587
15809978752
15809983146
15809990104
15809994926
15810001457
15810006096
15810015495
15810021354
15810026420
15810032829
15810037529
15810042961
15810051078
15810056449
15810063957
15810070549
15810076713
15810083000
15810088981
15810093559
15810096977
15810106010
15810113212
15810119743
15810124992
15810131095
15810134635
15810142143
15810147758
15810153922
15810158622
15810167045
15810174613
15810179313
15810185783
15810190726
15810196647
15810203056
15810210319
15810216666
15810221305
15810225211
15810232169
15810236991
15810242667
15810247855
15810257377
15810264213
15810274039
15810280509
15810289908
15810296256
15810311576
15810319877
15810328238
15810336173
15810344535
15810351187
15810359488
15810367301
15810373954
15810382193
15810392264
15810399161
15810407889
15810413931
15810421439
15810429556
15810437369
15810444327
15810452628
15810463065
15810467947
15810477286
15810484061
15810491751
15810497916
15810506461
15810513052
15810521475
15810528555
15810537344
15810544058
15810551687
15810560904
15810568350
15810574392
15810584768
15810591604
15810600149
15810606558
15810614187
15810622000
15810629568
15810636282
15810646292
15810655020
15810666677
15810673269
15810682180
15810688833
15810697622
15810705923
15810713980
15810722952
15810729543
15810737478
15810745474
15810754507
15810761709
15810769704
15810778066
15810786489
15810793691
15810801626
15810809682
15810816213
15810820913
15810831838
15810837331
15810848867
15810857351
15810867849
15810873647
15810884755
15810893545
15810899648
15810910024
15810916494
15810924489
15810932546
15810937490
15810946706
15810953847
15810962026
15810969106
15810977407
15810984731
15810993581
15811000844
15811008168
15811016713
15811022695
15811030507
15811041432
15811049062
15811055287
15811064687
15811072438
15811079335
15811087880
15811096120
15811105092
15811111745
15811120717
15811127797
15811136586
15811142689
15811150746
15811159352
15811167775
15811176259
15811183278
15811191151
15811195851
15811204945
15811212208
15811221058
15811228199
15811238758
15811246266
15811256092
15811264271
15811270680
15811277455
15811287525
15811295948
15811304676
15811312184
15811319691
15811326466
15811334339
15811343495
15811350880
15811357533
15811368580
15811375965
15811382801
15811388844
15811398121
15811404652
15811413135
15811421680
15811428944
15811437855
15811444691
15811452747
15811457447
15811467518
15811476185
15811482288
15811489368
15811499256
15811504566
15811513782
15811520984
15811528309
15811537037
15811543567
15811549549
15811561939
15811569324
15811576526
15811585315
15811593067
15811601245
15811610217
15811616809
15811626453
15811634998
15811642322
15811649097
15811654407
15811665210
15811671558
15811678760
15811685046
15811692920
15811698169
15811702869
15811710498
15811715259
15811721789
15811729175
15811736011
15811741870
15811748462
15811752612
15811760791
15811765002
15811772387
15811777270
15811784839
15811790149
15811797046
15811802539
15811807788
15811814990
15811820666
15811825183
15811836718
15811843066
15811848620
15811852099
15811859240
15811865222
15811872058
15811877734
15811883715
15811889331
15811895251
15811900500
15811906359
15811911181
15811916796
15811921801
15811929919
15811935229
15811942492
15811946948
15811952380
15811958422
15811963549
15811971728
15811977526
15811982653
15811987170
15811993090
15811999438
15812004931
15812008471
15812015978
15812019579
15812027270
15812031847
15812037768
15812041491
15812048876
15812055773
15812060717
15812066149
15812072130
15812075976
15812084643
15812089586
15812095324
15812100206
15812107103
15812113085
15812117907
15812124010
15812129808
15812135302
15812139391
15812147387
15812151293
15812159532
15812166735
15812173082
15812178209
15812183702
15812189073
15812195543
15812201830
15812207201
15812213182
15812221117
15812226671
15812231371
15812239244
15812242967
15812251878
15812255663
15812263658
15812268541
15812276415
15812282579
15812291368
15812299791
15812311510
15812316392
15812328172
15812333665
15812348741
15812356676
15812365404
15812373582
15812383531
15812393235
15812401597
15812409166
15812417161
15812424119
15812431993
15812440782
15812448655
15812456773
15812464769
15812471299
15812478746
15812487229
15812496873
15812505662
15812515794
15812525559
15812533982
15812542954
15812547776
15812560166
15812568589
15812576279
15812587022
15812593247
15812603562
15812608140
15812618943
15812626755
15812634751
15812643906
15812652329
15812660447
15812667954
15812678208
15812687729
15812696152
15812705491
15812712204
15812721665
15812730759
15812738694
15812746933
15812755600
15812763901
15812770798
15812780258
15812788315
15812796250
15812805161
15812814316
15812825180
15812833664
15812843002
15812851364
15812860458
15812869492
15812879318
15812888718
15812895798
15812906357
15812914902
15812923508
15812933822
15812942428
15812952072
15812959579
15812970443
15812975631
15812989059
15812997299
15813006149
15813017074
15813024582
15813035812
15813043991
15813053024
15813062606
15813071762
15813083175
15813091537
15813101547
15813110702
15813125778
15813134994
15813143539
15813154464
15813164474
15813173751
15813183395
15813193893
15813203963
15813213485
15813223922
15813233077
15813242354
15813251571
15813260787
15813270064
15813279342
15813289718
15813300521
15813309066
15813322432
15813331527
15813343245
15813349105
15813362776
15813374129
15813381575
15813392501
15813402205
15813414229
15813422286
15813433760
15813442183
15813454451
15813465315
15813475264
15813484541
15813494002
15813505781
15813516951
15813525435
15813536848
15813544356
15813552351
15813564619
15813576582
15813586531
15813595930
15813605635
15813615217
15813625837
15813634932
15813645307
15813655561
15813663557
15813676069
15813685285
15813694685
15813705854
15813715193
15813726240
15813733564
15813740705
15813746931
15813753950
15813757673
15813767744
15813773054
15813779157
15813787458
15813794599
15813801130
15813807722
15813814313
15813819501
15813826704
15813835370
15813841657
15813849164
15813855512
15813862226
15813866987
15813874128
15813882184
15813889814
15813895551
15813903486
15813909284
15813916364
15813921918
15813929914
15813936261
15813944684
15813974652
15813982282
15813989057
15813998334
15814006757
15814014325
15814022992
15814029584
15814039044
15814047162
15814054059
15814062909
15814068036
15814081769
15814090008
15814099408
15814109112
15814115948
15814124615
15814131085
15814139874
15814145917
15814154522
15814159222
15814169598
15814178326
15814185650
15814190960
15814199383
15814203778
15814213543
15814223492
15814229290
15814238385
15814244305
15814252423
15814260479
15814267742
15814275921
15814285198
15814294110
15814300335
15814308331
15814316937
15814322979
15814330731
15814338848
15814347332
15814356121
15814363812
15814370098
15814377972
15814385967
15814394695
15814400738
15814412456
15814418865
15814428631
15814434917
15814443584
15814449627
15814457866
15814466045
15814476909
15814483135
15814491802
15814498577
15814503154
15814509197
15814514690
15814519695
15814526653
15814532878
15814537212
15814540813
15814549053
15814554607
15814560100
15814566570
15814573406
15814577739
15814585918
15814591167
15814597392
15814603008
15814607952
15814615581
15814621135
15814626811
15814632854
15814637065
15814642986
15814647258
15814655864
15814661235
15814667278
15814673686
15814677837
15814683330
15814689189
15814696513
15814702556
15814708415
15814712810
15814719768
15814724406
15814730754
15814736064
15814745158
15814751323
15814759440
15814765300
15814771953
15814777141
15814783671
15814789592
15814797465
15814803691
15814808757
15814813884
15814821330
15814826518
15814832560
15814837931
15814845134
15814850871
15814856913
15814862040
15814869670
15814873271
15814881266
15814888041
15814896220
15814899760
15814906962
15814910075
15814917948
15814921366
15814930216
15814936686
15814943095
15814949320
15814953898
15814959696
15814965739
15814970072
15814976603
15814980631
15814989725
15814996622
15815002848
15815007181
15815014445
15815018046
15815025431
15815031901
15815038126
15815043192
15815049051
15815055033
15815061014
15815067179
15815071818
15815076944
15815084757
15815092203
15815097086
15815102884
15815108988
15815115030
15815121073
15815127237
15815133585
15815139200
15815145548
15815151834
15815157816
15815163187
15815167948
15815177286
15815182352
15815188638
15815194620
15815200052
15815206400
15815211954
15815218118
15815224893
15815231424
15815236490
15815242654
15815247781
15815253702
15815260843
15815265909
15815274759
15815281168
15815286233
15815292398
15815298929
15815303873
15815310647
15815317361
15815326028
15815332986
15815338540
15815345437
15815352212
15815361856
15815369729
15815377176
15815383523
15815388467
15815395242
15815400186
15815407693
15815413858
15815420266
15815426675
15815432107
15815437844
15815442178
15815448098
15815453652
15815458413
15815463784
15815467629
15815475747
15815481179
15815487771
15815493997
15815499917
15815503030
15815509805
15815513345
15815522439
15815526223
15815533608
15815536904
15815543984
15815547341
15815554421
15815558205
15815565652
15815571389
15815577004
15815582497
15815587014
15815592202
15815598489
15815603554
15815610085
15815615395
15815621804
15815626382
15815633217
15815638405
15815643715
15815648537
15815654641
15815658608
15815664895
15815670449
15815676674
15815681679
15815689553
15815694375
15815701455
15815706276
15815712563
15815718911
15815723061
15815729470
15815736306
15815742104
15815748696
15815755348
15815760842
15815767006
15815773964
15815778969
15815784767
15815790566
15815797890
15815805092
15815811562
15815816506
15815823219
15815827675
15815834816
15815841652
15815848793
15815856361
15815863014
15815868202
15815873695
15815878273
15815885048
15815889625
15815897804
15815903053
15815909950
15815915077
15815921058
15815926124
15815931984
15815937477
15815946571
15815953529
15815959694
15815965309
15815972877
15815976295
15815984413
15815989967
15815998390
15816003212
15816008766
15816011940
15816019264
15816025245
15816030555
15816036293
15816042335
15816047889
15816052467
15816057899
15816063392
15816069129
15816075294
15816082496
15816088477
15816093788
15816099647
15816105750
15816111793
15816117286
15816121681
15816129066
15816133521
15816140174
15816144569
15816151038
15816155677
15816161353
15816168067
15816173194
15816178321
15816185218
15816190040
15816195899
15816200599
15816207740
15816211585
15816220435
15816224402
15816231849
15816237830
15816243812
15816247352
15816255347
15816259437
15816267493
15816271399
15816279761
15816284400
15816291724
15816296851
15816303931
15816310218
15816316077
15816319861
15816327491
15816333960
15816338111
15816343604
15816349280
15816357215
15816363989
15816370337
15816374732
15816380408
15816387061
15816392432
15816397864
15816406714
15816412207
15816418005
15816423071
15816429297
15816435889
15816440344
15816447180
15816453711
15816459998
15816466589
15816473120
15816479040
15816483069
15816490088
15816496558
15816501135
15816506994
15816513403
15816520300
15816527075
15816534338
15816540503
15816547400
15816553015
15816560339
15816565588
15816571447
15816575964
15816581945
15816587256
15816595190
15816598974
15816606604
15816610205
15816617529
15816626440
15816633032
15816641455
15816646032
15816652624
15816662939
15816680456
15816693090
15816701757
15816711401
15816718298
15816726782
15816734716
15816742468
15816749059
15816753698
15816759740
15816764989
15816769811
15816774145
15816779027
15816783971
15816787694
15816791723
15816797704
15816802770
15816807470
15816811986
15816816686
15816820959
15816825841
15816830053
15816834997
15816839696
15816844762
15816849279
15816855993
15816859777
15816864843
15816869359
15816874364
15816878881
15816883336
15816887304
15816892736
15816898473
15816904271
15816909825
15816916234
15816921788
15816928380
15816933202
15816937108
15816941075
15816946996
15816951268
15816961217
15816966161
15816970250
15816974034
15816979772
15816984776
15816991063
15816995519
15817002965
15817008275
15817013768
15817017735
15817023229
15817027257
15817033116
15817039281
15817044957
15817050877
15817055943
15817062047
15817066685
15817071385
15817078404
15817083226
15817089451
15817097020
15817102269
15817109349
15817113804
15817121678
15817125584
15817133214
15817136693
15817144444
15817150242
15817155980
15817162755
15817168126
15817172093
15817179722
15817186497
15817191746
15817198033
15817201939
15817208592
15817214329
15817220127
15817224644
15817233006
15817236973
15817245884
15817250096
15817255955
15817261875
15817267796
15817273167
15817277806
15817284275
15817287998
15817295994
15817301182
15817307407
15817313572
15817318089
15817324375
15817329685
15817336765
15817341343
15817347019
15817352329
15817359348
15817364109
15817373508
15817378330
15817385349
15817392490
15817397312
15817403843
15817408909
15817416721
15817420383
15817428074
15817434482
15817439976
15817448276
15817454136
15817461277
15817466526
15817472995
15817476230
15817486179
15817491550
15817500217
15817507480
15817512119
15817518161
15817523899
15817529087
15817532993
15817541721
15817546115
15817550876
15817555820
15817561313
15817566135
15817572360
15817576999
15817580661
15817590305
15817595493
15817599826
15817603122
15817611484
15817614902
15817621433
15817627536
15817633762
15817638889
15817646152
15817650180
15817658847
15817664035
15817670810
15817677280
15817684909
15817688754
15817698154
15817706576
15817710971
15817717502
15817720798
15817728671
15817734469
15817739535
15817745028
15817748935
15817754855
15817761142
15817767611
15817771396
15817777865
15817781710
15817788668
15817793856
15817798739
15817804232
15817809420
15817813266
15817818515
15817823642
15817829806
15817834933
15817839450
15817845980
15817850985
15817856784
15817861483
15817867159
15817871493
15817877413
15817882357
15817888705
15817894259
15817898837
15817903780
15817910067
15817915011
15817920626
15817924654
15817932162
15817937045
15817943392
15817948031
15817953951
15817959017
15817964083
15817969942
15817977084
15817980501
15817989168
15817993502
15817999178
15818005770
15818010653
15818016634
15818020662
15818028963
15818032992
15818040743
15818046175
15818051851
15818056734
15818063448
15818068758
15818074007
15818078829
15818084810
15818090853
15818096651
15818103975
15818109041
15818115633
15818118135
15818128023
15818133882
15818138704
15818142427
15818150545
15818156221
15818161714
15818167085
15818173921
15818180086
15818186922
15818191683
15818197237
15818204317
15818209444
15818216768
15818226045
15818231416
15818239107
15818243684
15818253267
15818256868
15818263338
15818269990
15818277193
15818283052
15818287935
15818293367
15818299165
15818304231
15818310945
15818315889
15818321382
15818326082
15818331941
15818337556
15818343171
15818349824
15818355073
15818361360
15818368806
15818373933
15818380525
15818385347
15818391023
15818395295
15818401948
15818406770
15818413362
15818419648
15818421601
15818430940
15818436006
15818441743
15818446504
15818452668
15818459809
15818466584
15818472016
15818476594
15818481782
15818488252
15818493256
15818498994
15818506562
15818512483
15818518281
15818524262
15818529145
15818534821
15818539643
15818545563
15818551362
15818553864
15818563508
15818568696
15818574799
15818580781
15818585114
15818590790
15818596894
15818601227
15818609772
15818613801
15818621247
15818625336
15818632783
15818637726
15818643464
15818649140
15818656342
15818662262
15818667267
15818671784
15818678681
15818683808
15818689179
15818695099
15818702484
15818707428
15818713044
15818719452
15818723969
15818730683
15818734223
15818740875
15818746186
15818751801
15818757904
15818764313
15818769989
15818777741
15818782990
15818789887
15818796661
15818803436
15818810333
15818815949
15818823090
15818828339
15818839813
15818845306
15818852631
15818857696
15818865997
15818872955
15818880279
15818883880
15818891693
15818893951
15818902252
15818907928
15818912079
15818916351
15818924530
15818928497
15818936249
15818942413
15818947662
15818953094
15818958893
15818963531
15818972076
15818977935
15818984771
15818988494
15818994964
15818999725
15819005706
15819011200
15819016265
15819021026
15819025970
15819031524
15819039337
15819045013
15819051605
15819056487
15819061614
15819068328
15819073699
15819078704
15819086334
15819092193
15819099334
15819103973
15819107757
15819116607
15819120635
15819128570
15819132293
15819139861
15819145110
15819151946
15819157500
15819164703
15819168670
15819174285
15819179290
15819188384
15819194549
15819199248
15819203826
15819210784
15819217925
15819224273
15819230498
15819240142
15819247405
15819253997
15819259246
15819265776
15819271575
15819278350
15819284758
15819289092
15819295928
15819299529
15819308379
15819311797
15819317900
15819323638
15819328643
15819332793
15819341643
15819346648
15819352507
15819357329
15819362639
15819366911
15819373015
15819380339
15819388030
15819393584
15819399382
15819404875
15819411589
15819417021
15819424101
15819428496
15819435698
15819445891
15819451384
15819457793
15819462614
15819470366
15819478361
15819484953
15819488615
15819494475
15819499296
15819503752
15819510527
15819515043
15819521513
15819527311
15819532499
15819536467
15819541716
15819547148
15819551237
15819557402
15819566252
15819572294
15819576201
15819580534
15819586027
15819590544
15819596525
15819601164
15819606718
15819614225
15819617338
15819623442
15819627958
15819634245
15819639921
15819647489
15819662077
15819669950
15819674223
15819681059
15819684843
15819691801
15819698332
15819703886
15819708524
15819712736
15819717619
15819721830
15819727995
15819733732
15819738859
15819742826
15819748380
15819752164
15819757841
15819763761
15819769620
15819773954
15819780973
15819785673
15819789701
15819798246
15819801603
15819807645
15819811796
15819820707
15819826383
15819831205
15819837552
15819841886
15819846647
15819852506
15819858854
15819867032
15819873136
15819878507
15819883207
15819888333
15819892911
15819899991
15819904386
15819911771
15819916471
15819923001
15819928433
15819935086
15819940885
15819946134
15819952115
15819958768
15819965054
15819969388
15819972684
15819982938
15819990689
15819996915
15820005338
15820009061
15820017545
15820024686
15820032071
15820036954
15820041348
15820048367
15820052579
15820057950
15820063626
15820065457
15820075772
15820081387
15820085843
15820091763
15820097256
15820102017
15820108792
15820112088
15820120877
15820126919
15820132473
15820139309
15820144070
15820149075
15820155545
15820158902
15820165066
15820170987
15820176480
15820181057
15820188321
15820193264
15820199551
15820205166
15820211514
15820216580
15820222561
15820227566
15820234707
15820239590
15820244595
15820249600
15820254788
15820259793
15820266934
15820272122
15820278530
15820284145
15820291348
15820297329
15820303249
15820308254
15820315762
15820320583
15820327969
15820333035
15820337795
15820345730
15820351162
15820358059
15820362026
15820369167
15820374966
15820383205
15820388576
15820394008
15820400905
15820405727
15820410854
15820417324
15820424526
15820432583
15820437587
15820443813
15820451076
15820455776
15820463161
15820467067
15820474697
15820480617
15820487087
15820492702
15820499416
15820504543
15820512233
15820517238
15820523891
15820530483
15820538234
15820543178
15820550258
15820555690
15820562343
15820567348
15820573451
15820580104
15820585841
15820592433
15820599208
15820606166
15820614589
15820621181
15820626369
15820632350
15820640224
15820648036
15820656520
15820662501
15820668239
15820674342
15820678737
15820684840
15820689357
15820695704
15820699855
15820706386
15820711513
15820718959
15820724696
15820729823
15820736171
15820745936
15820752223
15820757716
15820763331
15820769130
15820774134
15820780848
15820785243
15820792506
15820799220
15820802882
15820809901
15820815577
15820819789
15820824671
15820830958
15820837245
15820844020
15820849207
15820856593
15820860438
15820867091
15820873072
15820879542
15820884425
15820891139
15820896021
15820901453
15820908900
15820915247
15820921046
15820927637
15820932520
15820940089
15820944544
15820951441
15820957117
15820962794
15820969141
15820974390
15820980616
15820985621
15820993128
15820999781
15821005274
15821011927
15821017115
15821023584
15821030848
15821035914
15821039942
15821048487
15821052820
15821060022
15821063990
15821071985
15821078211
15821083948
15821087366
15821096338
15821102076
15821108362
15821114466
15821116724
15821127222
15821132959
15821138269
15821145349
15821151636
15821157923
15821164453
15821170496
15821178491
15821184290
15821189844
15821195703
15821203943
15821209253
15821214929
15821222864
15821229089
15821235376
15821240991
15821252588
15821257226
15821265954
15821271814
15821277063
15821282068
15821289331
15821295740
15821301111
15821306177
15821311914
15821317712
15821324060
15821328515
15821334802
15821339074
15821345666
15821351159
15821359338
15821364343
15821371728
15821376306
15821382043
15821389733
15821395837
15821401757
15821409448
15821414331
15821422204
15821429345
15821434533
15821439843
15821444787
15821452477
15821459680
15821466088
15821472741
15821478539
15821484887
15821488366
15821494225
15821499413
15821506799
15821512292
15821517236
15821522424
15821526330
15821531945
15821537560
15821544457
15821551049
15821555749
15821562096
15821568017
15821574120
15821578942
15821584679
15821591088
15821599267
15821605553
15821612511
15821618187
15821626000
15821634240
15821639855
15821644860
15821648827
15821653405
15821659020
15821664757
15821669030
15821673729
15821680931
15821685204
15821690148
15821694542
15821699181
15821703881
15821709191
15821714562
15821719933
15821722496
15821730980
15821736534
15821741600
15821746178
15821751366
15821754540
15821761620
15821767357
15821773155
15821778526
15821784508
15821790123
15821795982
15821801720
15821806175
15821814049
15821820457
15821822411
15821831749
15821834984
15821842857
15821849937
15821855614
15821861046
15821865867
15821869957
15821875023
15821880699
15821884849
15821892723
15821896507
15821902427
15821906639
15821912010
15821916160
15821921531
15821925255
15821933372
15821938560
15821943870
15821947715
15821953758
15821957969
15821963157
15821967552
15821974144
15821977317
15821983055
15821987510
15821993919
15821999534
15822003807
15822008628
15822015037
15822020652
15822026084
15822031639
15822037010
15822040183
15822046836
15822052146
15822060325
15822065025
15822070823
15822076499
15822082053
15822085349
15822090904
15822095664
15822102622
15822106040
15822112815
15822118125
15822123374
15822129050
15822134788
15822141929
15822149253
15822152976
15822160117
15822165000
15822170066
15822175986
15822181235
15822186545
15822193992
15822199607
15822206016
15822210715
15822217429
15822222495
15822229758
15822234275
15822240805
15822247397
15822252524
15822257102
15822263694
15822269797
15822275107
15822279685
15822283530
15822292319
15822296225
15822304648
15822307944
15822314658
15822319541
15822326743
15822332297
15822341025
15822345053
15822351035
15822358054
15822363608
15822368491
15822376486
15822382346
15822391562
15822398276
15822403586
15822409262
15822416403
15822421957
15822427573
15822432394
15822439108
15822443869
15822449362
15822453879
15822458395
15822464133
15822469137
15822473654
15822482138
15822487143
15822492697
15822499045
15822505392
15822511068
15822517111
15822522238
15822528708
15822533773
15822539084
15822543600
15822549765
15822556112
15822561300
15822566000
15822572958
15822578085
15822583334
15822589743
15822594442
15822599630
15822605978
15822610128
15822617330
15822622213
15822628805
15822634054
15822640096
15822645773
15822650411
15822656576
15822664633
15822671102
15822676168
15822682333
15822685690
15822693136
15822696493
15822704061
15822708700
15822717855
15822722066
15822730062
15822735250
15822741170
15822746236
15822752889
15822758687
15822766439
15822771627
15822778768
15822783163
15822788778
15822795125
15822801534
