15548212759
15548216177
15548219656
15548222891
15548226370
15548229605
15548233023
15548236807
15548240775
15548244681
15548249075
15548252737
15548256338
15548261404
15548265860
15548270071
15548274710
15548279349
15548284292
15548289480
15548295157
15548299124
15548306265
15548316580
15548324392
15548331411
15548338980
15548346365
15548354300
15548358328
15548369253
15548377005
15548384207
15548391897
15548400686
15548406607
15548414968
15548422293
15548431326
15548439749
15548447866
15548455374
15548463247
15548470022
15548478018
15548488088
15548495352
15548503164
15548510366
15548519033
15548525930
15548533132
15548538564
15548545705
15548550344
15548559560
15548568777
15548575368
15548582509
15548588369
15548594533
15548601552
15548606985
15548615346
15548622609
15548627126
15548633413
15548639943
15548645681
15548652089
15548658132
15548666555
15548673085
15548680227
15548688344
15548693532
15548700734
15548706288
15548715261
15548721425
15548726430
15548733876
15548740407
15548748036
15548754140
15548760976
15548766713
15548774709
15548782948
15548790883
15548795339
15548802663
15548811818
15548817738
15548825307
15548831471
15548838734
15548845448
15548851247
15548859242
15548867238
15548873524
15548880604
15548886830
15548893300
15548899403
15548905873
15548911976
15548918629
15548925160
15548930775
15548938527
15548945607
15548951344
15548958973
15548966053
15548972340
15548980275
15548987599
15548993153
15549000904
15549006459
15549013905
15549018788
15549025563
15549030262
15549037586
15549044361
15549051075
15549056629
15549063282
15549070912
15549077381
15549082935
15549089527
15549097279
15549102833
15549111988
15549120533
15549127735
15549135303
15549143543
15549150623
15549158253
15549164600
15549172779
15549180530
15549188099
15549195118
15549202930
15549210010
15549217335
15549225391
15549231983
15549241749
15549249683
15549256214
15549264637
15549273731
15549279834
15549287586
15549294788
15549301197
15549308399
15549316516
15549323902
15549327564
15549336231
15549344226
15549350757
15549360340
15549367664
15549375415
15549383106
15549390308
15549397937
15549405139
15549412708
15549422412
15549428638
15549435962
15549443347
15549449390
15549459643
15549465747
15549473132
15549481067
15549491015
15549497302
15549504260
15549512988
15549518908
15549528430
15549536609
15549545092
15549553332
15549560107
15549566699
15549575915
15549582873
15549590625
15549596972
15549605578
15549614978
15549622729
15549626818
15549636401
15549645251
15549653246
15549660510
15549669177
15549676440
15549687487
15549699084
15549707873
15549715319
15549723437
15549729906
15549740038
15549747485
15549757067
15549766039
15549774645
15549781725
15549790514
15549796374
15549802294
15549809862
15549815050
15549819201
15549825731
15549829943
15549835924
15549842150
15549848009
15549854601
15549861681
15549866503
15549873278
15549878283
15549885179
15549889269
15549897997
15549904161
15549909288
15549915453
15549921495
15549927111
15549932237
15549938707
15549945970
15549950853
15549956407
15549960863
15549966539
15549971849
15549976976
15549984422
15549989000
15549994920
15550000047
15550006090
15550011278
15550015916
15550022935
15550028673
15550034288
15550040025
15550044969
15550049486
15550054674
15550060289
15550066087
15550072984
15550078416
15550084520
15550089952
15550096239
15550101793
15550106981
15550114061
15550121629
15550126756
15550131944
15550138780
15550143907
15550148607
15550154344
15550159288
15550166429
15550171189
15550177415
15550183335
15550188829
15550192674
15550199449
15550205796
15550211595
15550216355
15550221971
15550227525
15550232652
15550238450
15550244981
15550252244
15550257737
15550264390
15550270616
15550276109
15550281541
15550287278
15550296616
15550302049
15550310960
15550317063
15550322984
15550329636
15550334336
15550342515
15550347947
15550354905
15550362656
15550367356
15550372361
15550377732
15550383042
15550388535
15550394883
15550402207
15550407151
15550413254
15550418808
15550423630
15550429673
15550434494
15550442795
15550449021
15550454453
15550458908
15550464402
15550470017
15550476242
15550481919
15550487961
15550495346
15550501450
15550507126
15550513596
15550518723
15550524643
15550529587
15550535324
15550543259
15550548386
15550554245
15550560227
15550565781
15550572006
15550577988
15550583908
15550589829
15550594956
15550600693
15550605942
15550612961
15550617477
15550622055
15550628891
15550633713
15550641403
15550648605
15550652939
15550658371
15550663254
15550670151
15550675461
15550679245
15550686935
15550692550
15550698593
15550703903
15550710251
15550716232
15550722275
15550727340
15550734298
15550740829
15550745346
15550751449
15550757553
15550762252
15550768478
15550772995
15550778732
15550786850
15550791488
15550798629
15550803939
15550809005
15550813522
15550821090
15550826522
15550831649
15550838302
15550844772
15550851241
15550855392
15550859847
15550866500
15550872970
15550880538
15550887618
15550892318
15550897506
15550904830
15550912887
15550919051
15550922469
15550929916
15550938338
15550942794
15550949996
15550956710
15550962081
15550968001
15550972457
15550982467
15550988692
15550996566
15551002059
15551009383
15551018172
15551026778
15551033004
15551041854
15551048446
15551058089
15551066268
15551072554
15551081221
15551087813
15551097701
15551103560
15551114119
15551120711
15551129256
15551136092
15551143294
15551151595
15551158553
15551165328
15551175704
15551184126
15551191634
15551197859
15551205672
15551214705
15551222762
15551229720
15551237044
15551244612
15551251570
15551257735
15551265059
15551272810
15551279585
15551286116
15551294844
15551303755
15551309736
15551318342
15551323591
15551331648
15551338728
15551344465
15551351484
15551361921
15551369856
15551376020
15551384687
15551390791
15551397932
15551406660
15551413923
15551423200
15551430708
15551438093
15551445478
15551452986
15551461591
15551468855
15551475385
15551485273
15551491926
15551499799
15551507063
15551514387
15551520307
15551528364
15551537641
15551547102
15551556501
15551564619
15551570966
15551579328
15551588666
15551594770
15551601301
15551611310
15551618329
15551627729
15551633649
15551641340
15551649945
15551656171
15551664960
15551672650
15551682721
15551689679
15551699079
15551706891
15551713971
15551721478
15551731122
15551736859
15551748944
15551756085
15551762921
15551769635
15551777936
15551785321
15551792767
15551800458
15551810895
15551816632
15551824261
15551832989
15551841168
15551848126
15551856122
15551863934
15551872052
15551880780
15551888775
15551895978
15551904400
15551912884
15551920697
15551928936
15551936932
15551945843
15551953839
15551961102
15551971600
15551977398
15551988079
15551995404
15552004132
15552012554
15552020611
15552027813
15552035565
15552043865
15552051922
15552059857
15552068462
15552076336
15552084332
15552093731
15552101727
15552106731
15552116009
15552125164
15552133343
15552140240
15552148113
15552157085
15552164898
15552171978
15552179973
15552187542
15552196941
15552203960
15552214336
15552222332
15552229778
15552237651
15552245769
15552254009
15552264385
15552272625
15552279644
15552288372
15552296184
15552304485
15552312114
15552320537
15552329631
15552337627
15552345195
15552353252
15552360210
15552365581
15552373454
15552380534
15552386455
15552392375
15552398174
15552403850
15552409709
15552417583
15552424113
15552431132
15552438151
15552443828
15552454265
15552460002
15552466655
15552471843
15552479960
15552485393
15552491191
15552497233
15552504252
15552509135
15552515788
15552520793
15552526652
15552531779
15552538249
15552543071
15552548076
15552554301
15552562724
15552568522
15552574321
15552580363
15552585429
15552590434
15552596476
15552601481
15552607218
15552610148
15552618144
15552623576
15552628153
15552635233
15552639445
15552643778
15552651042
15552656168
15552660624
15552666667
15552670451
15552677836
15552681376
15552687540
15552693766
15552699259
15552705668
15552710429
15552715617
15552721598
15552728251
15552733561
15552737528
15552744913
15552751017
15552757487
15552760721
15552768839
15552774943
15552779947
15552784830
15552792154
15552796854
15552803385
15552808939
15552814676
15552819986
15552825907
15552831278
15552837381
15552844461
15552849772
15552858316
15552863993
15552869486
15552875284
15552882181
15552888224
15552893595
15552898600
15552904886
15552910623
15552920023
15552924600
15552933939
15552941080
15552949564
15552954141
15552958231
15552964700
15552969644
15552974832
15552979715
15552984598
15552990640
15552995706
15553002237
15553007974
15553014383
15553018961
15553024454
15553032022
15553039285
15553047403
15553053995
15553060953
15553067666
15553073648
15553078348
15553090066
15553095682
15553100259
15553107156
15553111856
15553118753
15553124002
15553129434
15553133462
15553140969
15553144937
15553150552
15553156717
15553161538
15553165933
15553172952
15553177652
15553183084
15553187356
15553193032
15553198464
15553204568
15553210122
15553215615
15553221780
15553227029
15553232461
15553237649
15553243875
15553250955
15553255105
15553263284
15553268044
15553275430
15553279824
15553287515
15553292825
15553298135
15553303872
15553310830
15553316872
15553322854
15553328957
15553334878
15553340859
15553346780
15553351052
15553357522
15553363991
15553369240
15553374184
15553381020
15553386208
15553392922
15553397439
15553402749
15553409218
15553415078
15553420266
15553425148
15553431374
15553435891
15553444191
15553450295
15553456276
15553462258
15553467568
15553470375
15553477639
15553480324
15553488381
15553492775
15553497597
15553505348
15553511025
15553516396
15553522133
15553527809
15553536415
15553543190
15553551247
15553558693
15553566750
15553574745
15553583473
15553589760
15553596840
15553606544
15553613441
15553621498
15553627479
15553635841
15553639931
15553652382
15553669166
15553679054
15553688453
15553696815
15553704750
15553712440
15553722511
15553730690
15553738014
15553746132
15553754249
15553762672
15553768776
15553777565
15553783607
15553790992
15553800025
15553806251
15553814308
15553825538
15553831886
15553840247
15553845863
15553852638
15553861366
15553867347
15553874854
15553884254
15553890784
15553897620
15553906287
15553913795
15553919532
15553927772
15553933753
15553939857
15553948402
15553954749
15553961768
15553970130
15553977027
15553984595
15553991797
15553999244
15554006263
15554012549
15554019690
15554026465
15554034095
15554041175
15554050696
15554057898
15554065589
15554073340
15554080970
15554084754
15554096717
15554101966
15554111060
15554117407
15554124610
15554132178
15554139807
15554147620
15554155493
15554163489
15554172095
15554181311
15554187231
15554194983
15554206702
15554210669
15554220007
15554226050
15554235327
15554241431
15554249121
15554258215
15554263830
15554273718
15554280920
15554288122
15554297217
15554305761
15554313025
15554321142
15554328527
15554336645
15554344458
15554352636
15554361975
15554370336
15554377905
15554384191
15554394018
15554402868
15554409216
15554419714
15554426855
15554437963
15554448461
15554460790
15554470861
15554481542
15554489660
15554499792
15554506200
15554514684
15554522680
15554530004
15554535802
15554544897
15554551122
15554558690
15554567235
15554572790
15554581273
15554587194
15554595556
15554602208
15554609166
15554617406
15554626317
15554633031
15554639623
15554646337
15554655980
15554662633
15554669286
15554676488
15554683934
15554687841
15554699437
15554705785
15554713414
15554720555
15554730199
15554737340
15554745885
15554751988
15554760533
15554767186
15554774632
15554781590
15554788243
15554794957
15554802403
15554810399
15554817479
15554823827
15554830785
15554837681
15554845433
15554851720
15554861363
15554870152
15554876500
15554880406
15554886693
15554890782
15554896885
15554900853
15554906163
15554913182
15554918919
15554925145
15554929478
15554935582
15554940586
15554947483
15554952244
15554958226
15554964329
15554968540
15554972996
15554978550
15554982701
15554988072
15554991490
15554998204
15555003514
15555009739
15555013951
15555019749
15555023899
15555029087
15555033787
15555040745
15555046543
15555051060
15555056553
15555061192
15555065769
15555071384
15555077366
15555082615
15555088413
15555093967
15555098667
15555105991
15555111729
15555119480
15555124424
15555134189
15555139927
15555145176
15555152378
15555158970
15555164585
15555170566
15555177524
15555182651
15555188328
15555193454
15555198765
15555204807
15555210727
15555216098
15555221714
15555225193
15555233005
15555239292
15555242832
15555249179
15555255222
15555260105
15555264987
15555271701
15555277683
15555282138
15555292026
15555296176
15555300876
15555307041
15555311374
15555318210
15555322421
15555327548
15555333103
15555338291
15555344211
15555349765
15555354709
15555360202
15555365024
15555370517
15555375888
15555381747
15555386325
15555391452
15555396274
15555407443
15555416049
15555421847
15555424960
15555435336
15555438571
15555445895
15555451022
15555457736
15555464084
15555468417
15555473178
15555480136
15555485324
15555488681
15555495028
15555500094
15555508395
15555512301
15555519381
15555525058
15555531344
15555535556
15555542453
15555546542
15555553256
15555557040
15555563205
15555568209
15555572909
15555578158
15555583468
15555587680
15555594943
15555600680
15555605807
15555609347
15555615023
15555621371
15555626986
15555629916
15555637301
15555643466
15555648165
15555652621
15555660311
15555665560
15555669100
15555676058
15555682650
15555688082
15555695895
15555702303
15555708773
15555716463
15555722140
15555729647
15555735079
15555742953
15555748202
15555754366
15555757235
15555764742
15555770357
15555775850
15555781099
15555787081
15555790255
15555798372
15555805758
15555812227
15555817415
15555823824
15555829378
15555835543
15555840548
15555846407
15555850069
15555855806
15555860811
15555866609
15555874605
15555884127
15555892427
15555898897
15555904329
15555910250
15555917146
15555923494
15555931612
15555938387
15555943941
15555949068
15555954317
15555959932
15555966280
15555971101
15555975435
15555980135
15555985384
15555992036
15555996553
15556003389
15556008211
15556015474
15556023225
15556029268
15556038118
15556044588
15556055513
15556059724
15556069917
15556076143
15556085115
15556090974
15556098115
15556104158
15556112153
15556119722
15556128022
15556135835
15556143647
15556150972
15556160493
15556165925
15556175202
15556184053
15556191072
15556198945
15556206269
15556213349
15556219941
15556228852
15556237153
15556242646
15556253510
15556259370
15556266511
15556275910
15556284760
15556290253
15556298188
15556306916
15556316682
15556323456
15556332673
15556339936
15556348237
15556357819
15556364350
15556373322
15556379426
15556388764
15556397004
15556404450
15556412812
15556421357
15556428193
15556435822
15556444489
15556452973
15556461396
15556469757
15556477204
15556483063
15556491364
15556497284
15556503876
15556514191
15556521088
15556527252
15556537140
15556544891
15556552155
15556559235
15556567474
15556575226
15556583588
15556590118
15556598175
15556606598
15556613190
15556622284
15556628143
15556636688
15556642242
15556652679
15556657928
15556668182
15556674103
15556683319
15556690582
15556698822
15556704010
15556714325
15556719574
15556728119
15556735565
15556743621
15556751251
15556758026
15556764373
15556774627
15556781524
15556788848
15556797332
15556805084
15556812164
15556817901
15556825836
15556833709
15556843353
15556852325
15556859405
15556866302
15556874053
15556882354
15556887786
15556895782
15556904021
15556912871
15556920867
15556928252
15556937041
15556945342
15556951324
15556959807
15556967986
15556974334
15556982451
15556988738
15556995818
15557005462
15557015166
15557020415
15557027983
15557037139
15557045073
15557053069
15557060210
15557065825
15557074858
15557082732
15557090544
15557097869
15557107146
15557116423
15557122588
15557126982
15557139189
15557145842
15557154875
15557161528
15557172758
15557180693
15557187285
15557197600
15557204924
15557212675
15557222136
15557230253
15557238981
15557249541
15557257109
15557263945
15557269438
15557279020
15557287016
15557294035
15557301115
15557309660
15557318144
15557325712
15557333036
15557340483
15557347319
15557355253
15557361784
15557369841
15557376737
15557386564
15557392546
15557401884
15557408598
15557415922
15557423490
15557427763
15557432829
15557440458
15557445890
15557450956
15557455534
15557460477
15557465849
15557470243
15557477445
15557483121
15557487638
15557494169
15557499601
15557504179
15557509367
15557514982
15557520719
15557527250
15557533842
15557538297
15557543668
15557550138
15557555265
15557562345
15557566984
15557572965
15557578458
15557582670
15557587308
15557593290
15557599820
15557606534
15557612577
15557617276
15557622464
15557627896
15557633023
15557638639
15557646329
15557652982
15557658963
15557663785
15557669400
15557675260
15557680020
15557686490
15557690091
15557696134
15557703641
15557708463
15557714627
15557721158
15557726163
15557731168
15557737515
15557745023
15557749478
15557756497
15557761563
15557766690
15557771512
15557778226
15557783108
15557788968
15557792569
15557800687
15557807461
15557811612
15557819546
15557826199
15557832303
15557837674
15557843472
15557852261
15557855862
15557864407
15557868741
15557875027
15557881375
15557886319
15557892605
15557898343
15557904385
15557910061
15557914578
15557919522
15557926480
15557932278
15557940518
15557944851
15557951321
15557956936
15557961880
15557967312
15557973110
15557978237
15557984097
15557989407
15557995632
15558002407
15558006924
15558013271
15558019436
15558024563
15558030483
15558035366
15558042385
15558046841
15558053921
15558058804
15558064297
15558069424
15558074612
15558082241
15558086941
15558094204
15558099697
15558104824
15558109707
15558115505
15558118313
15558129604
15558134670
15558140713
15558146145
15558152248
15558157863
15558163479
15558166591
15558174465
15558181362
15558187465
15558193447
15558196926
15558203579
15558209377
15558214077
15558220241
15558228542
15558234951
15558239772
15558245632
15558253078
15558258937
15558264064
15558271327
15558277858
15558283962
15558289028
15558294277
15558300258
15558306056
15558311550
15558317104
15558323512
15558329860
15558335902
15558341396
15558347316
15558352321
15558357936
15558364467
15558368800
15558374843
15558381801
15558389552
15558394008
15558401576
15558407374
15558413661
15558418483
15558425014
15558432399
15558439296
15558445216
15558452601
15558459559
15558465785
15558472560
15558479396
15558484706
15558491176
15558496913
15558502040
15558508265
15558514064
15558518763
15558524623
15558530543
15558536708
15558541896
15558547023
15558552943
15558558070
15558562159
15558567774
15558574366
15558579981
15558584742
15558590479
15558596522
15558601771
15558607752
15558616725
15558623866
15558633997
15558642237
15558649622
15558656641
15558664210
15558670496
15558676417
15558686121
15558693384
15558702235
15558708460
15558717066
15558724695
15558731898
15558739405
15558747095
15558755823
15558762598
15558768763
15558776331
15558784510
15558792566
15558796595
15558806665
15558815882
15558822107
15558827967
15558837061
15558843164
15558853235
15558859156
15558867029
15558877710
15558882898
15558891504
15558898279
15558907556
15558914758
15558921655
15558927759
15558938867
15558946741
15558953638
15558959558
15558967737
15558975610
15558983240
15558991418
15559000024
15559006616
15559014673
15559022912
15559031030
15559038415
15559045801
15559053186
15559061426
15559070154
15559076379
15559082299
15559090356
15559099328
15559106408
15559115442
15559120813
15559130273
15559138024
15559144982
15559152490
15559161828
15559169030
15559176110
15559183496
15559194482
15559201928
15559209130
15559215295
15559223351
15559231408
15559239159
15559247155
15559253259
15559262048
15559270104
15559276879
15559284508
15559291100
15559300011
15559308129
15559312829
15559323510
15559330895
15559339928
15559346032
15559354882
15559362023
15559369103
15559376244
15559386071
15559392907
15559404381
15559410485
15559419457
15559423851
15559434105
15559441124
15559450218
15559457848
15559465843
15559472252
15559480858
15559488365
15559496056
15559503258
15559510582
15559519188
15559525780
15559533836
15559540245
15559549278
15559555931
15559564171
15559571800
15559580101
15559586327
15559593223
15559603294
15559609398
15559616600
15559624962
15559633201
15559640281
15559648582
15559656761
15559663841
15559671898
15559678306
15559686119
15559693809
15559701316
15559710350
15559717186
15559725792
15559732627
15559738609
15559748313
15559756736
15559764366
15559769615
15559780540
15559786582
15559795616
15559803123
15559810996
15559817527
15559826377
15559833274
15559841819
15559848045
15559857322
15559864280
15559873069
15559882590
15559888816
15559898093
15559904624
15559912253
15559921165
15559929099
15559936057
15559945334
15559952475
15559960166
15559969443
15559975791
15559986289
15559992331
15560000083
15560006797
15560012900
15560019553
15560024680
15560031638
15560037680
15560044272
15560048484
15560054892
15560059470
15560065634
15560071189
15560075095
15560083090
15560089621
15560098410
15560103842
15560108908
15560114462
15560120688
15560127646
15560132590
15560138266
15560143881
15560149619
15560155417
15560161154
15560165976
15560174094
15560178915
15560184714
15560190512
15560196432
15560203512
15560209250
15560216391
15560222922
15560228110
15560233847
15560239889
15560245627
15560250998
15560256125
15560262411
15560268210
15560273092
15560279074
15560285238
15560290731
15560296042
15560303732
15560308187
15560315573
15560320700
15560326559
15560332174
15560337362
15560342245
15560349325
15560354635
15560362997
15560368612
15560373129
15560378012
15560385214
15560390096
15560396261
15560402670
15560409689
15560414694
15560420004
15560425741
15560431539
15560437704
15560445150
15560450094
15560457113
15560463705
15560469259
15560474264
15560481771
15560485860
15560491048
15560497884
15560504903
15560510946
15560517171
15560522909
15560528768
15560535909
15560542074
15560546224
15560555074
15560559713
15560567098
15560572164
15560577108
15560585653
15560590841
15560597371
15560604573
15560610311
15560615804
15560624471
15560630513
15560635030
15560642659
15560648030
15560654988
15560660115
15560665853
15560671163
15560676534
15560682942
15560686849
15560693623
15560699361
15560706136
15560712300
15560717183
15560721944
15560727132
15560731831
15560739644
15560743123
15560751363
15560757039
15560762776
15560767293
15560772603
15560777180
15560783223
15560788533
15560796773
15560802266
15560806050
15560813313
15560817280
15560825337
15560830220
15560836140
15560841816
15560849019
15560855793
15560861104
15560866047
15560871541
15560875874
15560882344
15560887410
15560893635
15560898335
15560905110
15560910786
15560917378
15560922200
15560927998
15560934346
15560939167
15560945759
15560950093
15560957539
15560963093
15560969746
15560974690
15560980732
15560983906
15560991596
15560997090
15561002827
15561007771
15561014423
15561019978
15561025105
15561030476
15561038105
15561041523
15561049335
15561055256
15561060688
15561065815
15561069172
15561075642
15561079670
15561087482
15561092609
15561097919
15561103596
15561109089
15561114704
15561119465
15561124470
15561132526
15561137409
15561142719
15561147968
15561154133
15561158649
15561164020
15561169758
15561174701
15561185321
15561192463
15561200580
15561208942
15561216144
15561224384
15561233234
15561240863
15561247821
15561255939
15561263874
15561271076
15561278522
15561286456
15561293048
15561302387
15561309467
15561316547
15561325824
15561332477
15561341632
15561348468
15561356403
15561364154
15561373492
15561380694
15561388812
15561395587
15561403644
15561410296
15561416583
15561425921
15561435077
15561442096
15561448260
15561456561
15561464068
15561471515
15561480182
15561488360
15561494708
15561504046
15561508502
15561518512
15561527545
15561533709
15561542132
15561547320
15561555255
15561566241
15561573748
15561582415
15561589984
15561597491
15561605303
15561611590
15561620135
15561627337
15561635394
15561642718
15561651873
15561658709
15561666888
15561674822
15561684038
15561690874
15561696429
15561706621
15561714556
15561722857
15561729021
15561739763
15561744951
15561752703
15561760210
15561772173
15561780169
15561787188
15561795061
15561802935
15561809465
15561818499
15561824846
15561833818
15561840593
15561848162
15561857378
15561864031
15561870806
15561877336
15561887224
15561893694
15561903398
15561912492
15561919939
15561926469
15561935625
15561942094
15561949480
15561956560
15561964922
15561973344
15561981645
15561988847
15561994401
15562003007
15562009843
15562019426
15562028215
15562034257
15562043962
15562049943
15562059831
15562065690
15562074235
15562081559
15562086320
15562095109
15562103166
15562108537
15562117936
15562123307
15562129655
15562137590
15562144486
15562154923
15562159684
15562167802
15562173905
15562182877
15562190629
15562198014
15562208573
15562219254
15562227799
15562236771
15562243729
15562249284
15562256364
15562264420
15562272233
15562280961
15562288407
15562294083
15562301102
15562310685
15562315873
15562324540
15562331559
15562341141
15562350846
15562357499
15562367081
15562376908
15562385270
15562392838
15562401078
15562408829
15562418228
15562426468
15562435562
15562441971
15562449234
15562457840
15562466202
15562472794
15562482987
15562489273
15562497086
15562506912
15562512100
15562522659
15562528763
15562537308
15562543594
15562552078
15562559708
15562567703
15562574600
15562582840
15562589004
15562599930
15562606521
15562613785
15562620926
15562626724
15562633316
15562637588
15562643142
15562648819
15562653946
15562659805
15562665237
15562671219
15562676895
15562682998
15562688247
15562695083
15562700149
15562706253
15562710037
15562718765
15562725845
15562732803
15562739334
15562746108
15562752273
15562757461
15562764114
15562769363
15562775527
15562782546
15562790969
15562796462
15562802627
15562809524
15562814346
15562820388
15562827346
15562832351
15562837844
15562843276
15562849868
15562855849
15562860793
15562868667
15562872939
15562881789
15562887893
15562893203
15562898391
15562904189
15562908584
15562913955
15562920302
15562925857
15562930190
15562935500
15562941543
15562948440
15562954360
15562959548
15562965529
15562970656
15562975783
15562983168
15562988478
15562996535
15563004042
15563009536
15563013808
15563019728
15563024428
15563029982
15563034072
15563039565
15563044753
15563053053
15563057631
15563064284
15563070326
15563074965
15563080824
15563084548
15563090773
15563095900
15563102492
15563108046
15563113173
15563118178
15563123610
15563128676
15563132704
15563140334
15563145644
15563152174
15563156264
15563162855
15563167372
15563172499
15563178175
15563183851
15563190626
15563197035
15563201063
15563205946
15563211256
15563217299
15563222487
15563228895
15563233961
15563239393
15563243422
15563248488
15563252577
15563257887
15563262343
15563268873
15563276503
15563283949
15563294142
15563300306
15563309950
15563316786
15563323805
15563328504
15563334791
15563339430
15563345228
15563351148
15563355482
15563361463
15563367323
15563371961
15563376417
15563380628
15563385023
15563390394
15563392774
15563399610
15563404798
15563410535
15563414137
15563419447
15563424207
15563428480
15563433546
15563439954
15563446363
15563450330
15563455762
15563459486
15563465101
15563470106
15563475049
15563481214
15563486463
15563490125
15563495740
15563501233
15563505994
15563510999
15563518079
15563522474
15563528821
15563532667
15563538282
15563542737
15563547254
15563551832
15563556775
15563562330
15563567762
15563570569
15563579175
15563584851
15563590345
15563594800
15563600537
15563606702
15563612805
15563617505
15563622815
15563629224
15563634778
15563639112
15563644422
15563650464
15563655835
15563661267
15563667249
15563672925
15563678052
15563682385
15563690686
15563697400
15563701795
15563706067
15563713574
15563721692
15563728467
15563733838
15563743176
15563751294
15563758557
15563765515
15563772839
15563780041
15563788342
15563795361
15563800122
15563808240
15563818310
15563826611
15563831738
15563842175
15563847729
15563856457
15563863903
15563871899
15563879650
15563889904
15563898815
15563905468
15563913525
15563921826
15563929455
15563937329
15563944653
15563950146
15563959545
15563965283
15563974621
15563979870
15563988598
15563996410
15564003002
15564008801
15564014965
15564019787
15564027660
15564035107
15564042553
15564050121
15564059704
15564065929
15564075329
15564081493
15564088207
15564094616
15564102550
15564111217
15564118419
15564124828
15564131725
15564138195
15564145458
15564151012
15564160289
15564168651
15564176159
15564182262
15564189586
15564195690
15564204357
15564209728
15564217968
15564226573
15564233653
15564240184
15564247020
15564252452
15564260814
15564266734
15564275707
15564283946
15564291576
15564297618
15564305553
15564310924
15564319286
15564325694
15564333080
15564340465
15564349376
15564357982
15564364146
15564372630
15564380382
15564387523
15564393016
15564403331
15564410289
15564416026
15564422435
15564431102
15564438609
15564445506
15564451487
15564461497
15564467295
15564476085
15564481700
15564490367
15564495555
15564504832
15564511302
15564519541
15564529002
15564536448
15564542857
15564550181
15564556712
15564564646
15564570567
15564580271
15564586497
15564596140
15564601939
15564611216
15564617625
15564626414
15564633616
15564641672
15564650706
15564658762
15564664866
15564671458
15564679575
15564686106
15564694163
15564699351
15564708079
15564713877
15564721811
15564728159
15564736826
15564744211
15564750315
15564756662
15564766855
15564773569
15564781565
15564787363
15564795969
15564803598
15564810373
15564818125
15564825632
15564832590
15564840402
15564846872
15564853098
15564858591
15564867624
15564873178
15564883554
15564891184
15564897531
15564906137
15564913034
15564920297
15564926889
15564933176
15564943979
15564949533
15564958932
15564964853
15564974191
15564982675
15564990915
15564995737
15565005685
15565012216
15565021982
15565028329
15565035775
15565043893
15565051706
15565058053
15565065988
15565072335
15565079354
15565084420
15565089608
15565095224
15565100412
15565105050
15565110726
15565117379
15565122323
15565128182
15565135507
15565141915
15565148507
15565153146
15565161263
15565166940
15565170846
15565175729
15565181527
15565186288
15565191110
15565197640
15565203011
15565207955
15565213326
15565218453
15565223519
15565229745
15565233773
15565241769
15565247140
15565252022
15565258614
15565264352
15565269967
15565276498
15565281869
15565287911
15565296029
15565302193
15565310616
15565316475
15565322884
15565328682
15565334969
15565340950
15565346993
15565351815
15565358529
15565363961
15565369820
15565376473
15565382027
15565387581
15565393990
15565399056
15565404976
15565409981
15565415535
15565422676
15565426827
15565434639
15565438484
15565445442
15565449349
15565455635
15565462044
15565467598
15565472298
15565479439
15565486458
15565492500
15565497627
15565503609
15565508614
15565514229
15565520943
15565527962
15565533089
15565539741
15565545601
15565550362
15565557564
15565561958
15565568489
15565573189
15565580513
15565585029
15565591560
15565596809
15565603279
15565609443
15565614753
15565620247
15565625679
15565631172
15565637275
15565642708
15565649055
15565655525
15565661079
15565666267
15565672065
15565678352
15565684516
15565689094
15565694709
15565700935
15565704902
15565711921
15565718330
15565723884
15565732368
15565737007
15565742011
15565748542
15565754402
15565759528
15565766120
15565772285
15565778510
15565784004
15565791023
15565796088
15565801765
15565806892
15565812812
15565820014
15565826850
15565832526
15565837287
15565842963
15565848151
15565854133
15565858710
15565865485
15565870307
15565877814
15565882331
15565888190
15565892646
15565898322
15565906745
15565911872
15565921271
15565926825
15565934882
15565939765
15565947272
15565951423
15565957648
15565962897
15565969367
15565975165
15565979193
15565984137
15565990912
15565995795
15566001960
15566007575
15566013373
15566019049
15566025092
15566029975
15566036994
15566041571
15566046637
15566052924
15566059454
15566067084
15566072150
15566077277
15566083258
15566088385
15566094061
15566099310
15566105780
15566113104
15566119513
15566124640
15566130377
15566135626
15566141119
15566145575
15566150214
15566158758
15566164496
15566171393
15566176520
15566181524
15566187506
15566192511
15566199103
15566205877
15566210699
15566217047
15566223028
15566228460
15566233526
15566239630
15566244635
15566252142
15566257330
15566267096
15566271978
15566281378
15566287054
15566295111
15566303472
15566309576
15566315924
15566325384
15566332037
15566341436
15566348028
15566356512
15566362676
15566370550
15566379583
15566385198
15566395940
15566402288
15566409978
15566416692
15566424932
15566432561
15566441167
15566448247
15566456243
15566463323
15566471929
15566478521
15566487859
15566494024
15566501897
15566509954
15566517644
15566524846
15566532598
15566540471
15566547857
15566556768
15566565007
15566573980
15566581243
15566589482
15566598027
15566604436
15566613835
15566620122
15566626592
15566637883
15566642217
15566651128
15566660954
15566666020
15566675420
15566682927
15566690678
15566699040
15566706853
15566712163
15566720403
15566728642
15566736577
15566744023
15566750859
15566758794
15566766667
15566773076
15566780339
15566787419
15566795048
15566802373
15566807194
15566816227
15566824101
15566830449
15566838505
15566844731
15566851017
15566860295
15566866520
15566873600
15566881596
15566890873
15566898442
15566904423
15566910649
15566919682
15566927677
15566934696
15566941960
15566949040
15566955814
15566962834
15566970524
15566977543
15566982914
15566992619
15566997562
15567006474
15567012638
15567022282
15567027775
15567035343
15567042118
15567049137
15567056217
15567065677
15567071293
15567078922
15567087467
15567093570
15567102237
15567109745
15567116947
15567123417
15567130314
15567139530
15567147403
15567152042
15567161136
15567169437
15567175907
15567183109
15567189945
15567196903
15567203922
15567211795
15567219242
15567226444
15567233219
15567240299
15567248294
15567255985
15567264468
15567271610
15567279483
15567286563
15567295047
15567301578
15567310672
15567319644
15567326114
15567335147
15567340213
15567349246
15567355411
15567365420
15567371158
15567381106
15567387820
15567394595
15567402530
15567409793
15567417727
15567424868
15567430667
15567438052
15567445803
15567453433
15567460696
15567467898
15567474185
15567481997
15567489810
15567497988
15567506716
15567514834
15567521731
15567529482
15567535952
15567543643
15567549868
15567558047
15567566714
15567571536
15567580752
15567586001
15567594302
15567602358
15567608828
15567615908
15567623232
15567630007
15567638918
15567646120
15567653811
15567659060
15567666140
15567674746
15567682497
15567689211
15567695742
15567700197
15567705507
15567711001
15567715578
15567721865
15567727175
15567734865
15567737673
15567744814
15567751223
15567757143
15567762636
15567769960
15567776857
15567782534
15567786745
15567792299
15567797487
15567802858
15567808290
15567815492
15567820803
15567827455
15567831423
15567838197
15567846071
15567851686
15567856630
15567865236
15567870790
15567875429
15567880739
15567886720
15567892213
15567897035
15567903444
15567909181
15567915163
15567921327
15567926027
15567931886
15567936586
15567941896
15567948366
15567955385
15567961183
15567966493
15567971376
15567977540
15567985963
15567993776
15567999818
15568006471
15568014283
15568020448
15568026674
15568033082
15568038759
15568047609
15568054200
15568059877
15568065797
15568072633
15568076051
15568083192
15568087953
15568095582
15568099977
15568106996
15568112306
15568117372
15568122132
15568127381
15568133363
15568140870
15568146424
15568151124
15568155702
15568160890
15568166016
15568171693
15568177186
15568183900
15568189881
15568195313
15568199891
15568206666
15568211976
15568217530
15568222169
15568229432
15568235047
15568241944
15568247437
15568252747
15568257935
15568263428
15568268677
15568275452
15568281495
15568289124
15568293213
15568299317
15568303467
15568309998
15568314698
15568322388
15568330140
15568334534
15568339051
15568345704
15568351929
15568358094
15568362549
15568368531
15568374146
15568379578
15568386353
15568391907
15568397095
15568402466
15568407898
15568413208
15568421265
15568429444
15568435364
15568439209
15568446106
15568451477
15568457581
15568462647
15568468445
15568473511
15568479553
15568485718
15568491882
15568496338
15568502747
15568507202
15568512634
15568520935
15568527405
15568532043
15568537659
15568544433
15568550354
15568555664
15568561096
15568567383
15568574280
15568579529
15568585205
15568591125
15568596557
15568602051
15568608398
15568615478
15568622924
15568630066
15568635803
15568642395
15568647400
15568654724
15568659851
15568665161
15568674499
15568680542
15568685180
15568690795
15568697326
15568702392
15568707458
15568714111
15568720031
15568726867
15568732543
15568736999
15568742553
15568747558
15568755065
15568759826
15568766235
15568771728
15568777709
15568783569
15568789672
15568794799
15568800292
15568804992
15568812560
15568817565
15568825194
15568830199
15568837829
15568842284
15568848266
15568852660
15568858703
15568867431
15568872497
15568881774
15568889281
15568896117
15568904418
15568911742
15568917540
15568929076
15568936461
15568944640
15568952819
15568960875
15568967894
15568975402
15568982543
15568993590
15569001525
15569009642
15569013548
15569023741
15569032225
15569039610
15569046202
15569054869
15569063536
15569068663
15569077635
15569083250
15569092101
15569099852
15569107909
15569115111
15569125914
15569133910
15569141356
15569149351
15569156187
15569162230
15569171568
15569179259
15569187742
15569194578
15569202086
15569206175
15569216917
15569223021
15569231871
15569238218
15569245970
15569255247
15569262754
15569268858
15569275877
15569285337
15569291990
15569300779
15569307920
15569316648
15569322935
15569332945
15569340818
15569348753
15569356199
15569366026
15569372984
15569381406
15569388853
15569396543
15569404050
15569412107
15569420652
15569428586
15569432615
15569442808
15569449277
15569459165
15569465085
15569473569
15569481748
15569491208
15569497434
15569507810
15569514035
15569523069
15569529172
15569536252
15569545530
15569551023
15569563718
15569572873
15569580197
15569588071
15569597226
15569604123
15569613278
15569620664
15569627866
15569635495
15569645383
15569650327
15569660336
15569668759
15569675656
15569682675
15569690305
15569697629
15569706296
15569714169
15569720822
15569729123
15569734982
15569744198
15569749997
15569757443
15569765500
15569773923
15569780942
15569790829
15569797116
15569804318
15569813351
15569821469
15569828671
15569836911
15569845150
15569853451
15569860409
15569868161
15569877011
15569882931
15569891415
15569900143
15569907833
15569913265
15569922909
15569928280
15569938290
15569944759
15569951962
15569960384
15569968746
15569974056
15569984127
15569990902
15569999447
15570007198
15570013180
15570021847
15570028438
15570038082
15570046261
15570053463
15570060787
15570067928
15570075313
15570083004
15570091427
15570099971
15570108883
15570116146
15570121456
15570130245
15570139583
15570145565
15570155208
15570164608
15570169368
15570180538
15570187435
15570198360
15570205013
15570213741
15570220333
15570229305
15570237850
15570246150
15570253597
15570261897
15570270076
15570277766
15570284358
15570289790
15570295467
15570299983
15570307307
15570311763
15570317561
15570324397
15570333186
15570342769
15570352839
15570357661
15570369441
15570375911
15570382380
15570389094
15570395503
15570402095
15570408687
15570414546
15570420955
15570426692
15570432612
15570437617
15570443232
15570449458
15570456050
15570460932
15570466853
15570472224
15570478205
15570485224
15570490229
15570497431
15570504695
15570511775
15570518366
15570525141
15570530451
15570536433
15570541499
15570545893
15570553645
15570558466
15570563960
15570568659
15570575373
15570579951
15570586604
15570590205
15570597529
15570603266
15570608454
15570614497
15570620539
15570628413
15570633845
15570639033
15570645380
15570650690
15570655573
15570659907
15570666376
15570670344
15570677424
15570683649
15570690729
15570695185
15570700617
15570705927
15570712641
15570716791
15570723200
15570726923
15570732172
15570737482
15570744318
15570749872
15570755915
15570761469
15570768549
15570773371
15570782587
15570787592
15570794794
15570800836
15570807428
15570814142
15570822626
15570828119
15570835565
15570841119
15570849054
15570855035
15570861566
15570866144
15570871942
15570877740
15570885431
15570891351
15570896600
15570902521
15570907404
15570911981
15570917230
15570922540
15570928033
15570934137
15570940179
15570945184
15570950799
15570957208
15570963373
15570966424
15570973810
15570978509
15570986261
15570990716
15570997613
15571002435
15571008416
15571014886
15571018914
15571027032
15571032830
15571038629
15571043756
15571048883
15571054132
15571060296
15571065301
15571073175
15571077569
15571085198
15571089654
15571095330
15571100457
15571106805
15571111505
15571119622
15571125176
15571132562
15571137017
15571142999
15571150079
15571154107
15571160760
15571165765
15571171868
15571178155
15571184014
15571189935
15571195855
15571201287
15571206719
15571211480
15571219231
15571223626
15571230340
15571236687
15571242974
15571249200
15571254632
15571259087
15571265435
15571272576
15571278679
15571283562
15571289727
15571294121
15571301018
15571306084
15571314019
15571318718
15571325188
15571330559
15571336296
15571340508
15571345696
15571352410
15571357292
15571363396
15571370415
15571374810
15571379936
15571385247
15571390557
15571396172
15571403313
15571409905
15571417351
15571423149
15571428398
15571437126
15571443291
15571448540
15571458794
15571464836
15571472282
15571477776
15571482964
15571488884
15571496757
15571503715
15571511955
15571518913
15571526482
15571533195
15571540397
15571546928
15571555473
15571562614
15571570183
15571576713
15571585136
15571593193
15571601432
15571608268
15571613701
15571623710
15571629264
15571639640
15571646659
15571654167
15571661735
15571669425
15571676017
15571683769
15571691032
15571699882
15571708793
15571715507
15571724235
15571732108
15571738761
15571747367
15571754020
15571759574
15571769340
15571776603
15571784721
15571792228
15571799430
15571806510
15571814994
15571822623
15571831107
15571837943
15571845634
15571854056
15571860587
15571870109
15571876883
15571883048
15571890616
15571898795
15571908561
15571915641
15571923514
15571930777
15571938285
15571946402
15571955497
15571963980
15571969596
15571977957
15571984976
15571993399
15572002616
15572008719
15572015128
15572024649
15572031851
15572040640
15572047415
15572056876
15572063651
15572070609
15572078299
15572086783
15572095145
15572101370
15572111624
15572118582
15572126333
15572133780
15572142569
15572148916
15572157278
15572166128
15572172720
15572181936
15572187185
15572198599
15572204519
15572214285
15572219778
15572230703
15572238638
15572246450
15572253591
15572263296
15572270803
15572278555
15572286611
15572297231
15572304556
15572313223
15572320242
15572329580
15572336477
15572344167
15572351370
15572360525
15572368215
15572376943
15572384878
15572390737
15572399709
15572406606
15572413076
15572423574
15572431142
15572439199
15572445486
15572452871
15572462880
15572468007
15572477590
15572483693
15572492299
15572498891
15572509694
15572515065
15572523427
15572530507
15572538747
15572548635
15572555654
15572565541
15572572316
15572580861
15572587026
15572596120
15572601491
15572611196
15572616322
15572627736
15572633595
15572643544
15572650563
15572658131
15572666432
15572674428
15572679799
15572689320
15572697987
15572704030
15572712636
15572720997
15572728200
15572736073
15572742482
15572752736
15572757130
15572768361
15572775319
15572783803
15572790577
15572800343
15572806691
15572814137
15572822132
15572830860
15572838612
15572845021
15572853627
15572860035
15572867848
15572876698
15572883717
15572892445
15572899159
15572904041
15572909657
15572914601
15572920155
15572924915
15572931263
15572937122
15572943226
15572948170
15572954212
15572959217
15572966785
15572970142
15572979542
15572985096
15572991688
15572998402
15573005909
15573012134
15573018360
15573024219
15573030384
15573033985
15573040943
15573047169
15573052173
15573058826
15573063099
15573069263
15573072681
15573078357
15573086109
15573091175
15573098682
15573103504
15573108509
15573116260
15573121875
15573129505
15573134143
15573141407
15573148487
15573154346
15573158557
15573166126
15573171314
15573178089
15573184192
15573190418
15573196155
15573202869
15573207691
15573213184
15573220691
15573225940
15573233691
15573240833
15573246814
15573252551
15573258716
15573265430
15573271899
15573278064
15573284961
15573288501
15573296374
15573303149
15573307117
15573314990
15573320544
15573326221
15573332568
15573340259
15573345874
15573351550
15573356555
15573363330
15573370227
15573376391
15573382495
15573387988
15573395129
15573401721
15573408923
15573416735
15573427722
15573435656
15573444567
15573453234
15573458361
15573464099
15573469653
15573475695
15573482897
15573488452
15573494250
15573500964
15573506884
15573512988
15573518237
15573523364
15573531420
15573536303
15573544238
15573549242
15573557055
15573563525
15573568468
15573574206
15573579821
15573586230
15573591418
15573595812
15573604418
15573610216
15573615343
15573621447
15573627672
15573633227
15573642626
15573649828
15573657641
15573664232
15573671496
15573675768
15573682238
15573687365
15573692125
15573697985
15573704760
15573709215
15573715319
15573720263
15573725512
15573729418
15573734484
15573740404
15573748644
15573752672
15573759447
15573763903
15573770433
15573774706
15573779955
15573784593
15573791063
15573797716
15573803392
15573808763
15573812792
15573818651
15573824754
15573829515
15573834703
15573841722
15573849413
15573854173
15573859911
15573864976
15573871629
15573876695
15573881334
15573888902
15573894823
15573899889
15573905138
15573911546
15573916978
15573922594
15573927354
15573934617
15573940050
15573946580
15573950914
15573957017
15573963182
15573966722
15573973497
15573979356
15573987962
15573994371
15573999559
15574004991
15574010179
15574015001
15574021165
15574026597
15574035264
15574042039
15574049302
15574056199
15574064500
15574070481
15574079270
15574088914
15574099351
15574107041
15574115342
15574123094
15574132554
15574141221
15574149949
15574160691
15574170884
15574178696
15574187791
15574196091
15574204148
15574212083
15574220383
15574227769
15574236130
15574245408
15574252488
15574259446
15574268662
15574276536
15574285447
15574294053
15574304428
15574313706
15574322495
15574332016
15574338364
15574350205
15574358444
15574365708
15574373520
15574382675
15574390244
15574396897
15574404526
15574412583
15574422409
15574429367
15574438461
15574449448
15574463608
15574482651
15574495773
15574511032
15574524887
15574537704
15574553940
15574568222
15574582382
15574595871
15574611251
15574624679
15574632064
15574640426
15574648239
15574659652
15574673263
15574685165
15574698104
15574709335
15574724044
15574733505
15574743942
15574752486
15574760116
15574768050
15574776107
15574784469
15574792403
15574799666
15574807906
15574816634
15574824996
15574832992
15574841048
15574848983
15574857039
15574864547
15574874312
15574882918
15574890548
15574898787
15574906295
15574915999
15574924910
15574931502
15574940596
15574946822
15574956404
15574965193
15574972273
15574979598
15574989119
15574995528
15575004012
15575013411
15575021468
15575029158
15575037581
15575045393
15575053938
15575061201
15575068770
15575075972
15575084700
15575092146
15575098799
15575108992
15575118941
15575126570
15575133101
15575140059
15575149885
15575161909
15575173384
15575182234
15575191938
15575201460
15575208967
15575216902
15575226545
15575234175
15575243330
15575252119
15575259626
15575267805
15575275617
15575285139
15575293195
15575302839
15575312422
15575321394
15575329145
15575337385
15575345197
15575354475
15575363508
15575369672
15575378889
15575387678
15575393659
15575404279
15575412702
15575420698
15575430036
15575437116
15575445844
15575453229
15575461164
15575468854
15575478925
15575485273
15575494123
15575503217
15575511274
15575518293
15575528607
15575535260
15575545148
15575553021
15575559796
15575567426
15575577191
15575589215
15575593854
15575598920
15575604291
15575607648
15575612470
15575615704
15575621381
15575626325
15575631024
15575639081
15575643903
15575647626
15575651654
15575659467
15575663922
15575667340
15575672101
15575677106
15575681927
15575686139
15575690961
15575696454
15575701276
15575706158
15575710065
15575713910
15575718670
15575722516
15575729657
15575736004
15575740399
15575744610
15575748761
15575753949
15575758893
15575765240
15575770855
15575775433
15575782574
15575785321
15575793072
15575797589
15575804913
15575808880
15575814251
15575818096
15575823529
15575828900
15575837017
15575842694
15575847454
15575852032
15575857708
15575861859
15575866131
15575871624
15575875714
15575882855
15575887432
15575893231
15575897747
15575902020
15575907024
15575911419
15575915875
15575921978
15575928204
15575934734
15575942303
15575950298
15575955425
15575960308
15575965313
15575970196
15575974956
15575979656
15575984600
15575989300
15575995159
15576000896
15576009380
15576014080
15576018474
15576024273
15576028606
15576033550
15576037456
15576041668
15576046489
15576052349
15576057903
15576062114
15576067730
15576074260
15576079448
15576088054
15576093792
15576098552
15576103252
15576109356
15576113994
15576120098
15576125896
15576132427
15576138164
15576144756
15576149272
15576154033
15576158367
15576164775
15576168865
15576176555
15576181316
15576188396
15576191997
15576198650
15576203533
15576208598
15576213115
15576219157
15576225322
15576232341
15576237651
15576242534
15576247234
15576253825
15576258769
15576265544
15576270854
15576276530
15576282939
15576288615
15576295451
15576302836
15576307780
15576314494
15576320598
15576328654
15576332866
15576337321
15576342692
15576348552
15576353129
15576359416
15576363078
15576368449
15576372905
15576378215
15576382792
15576388896
15576394206
15576404216
15576408793
15576413432
15576418315
15576423259
15576427836
15576433390
15576437724
15576444071
15576450419
15576454447
15576459208
15576463664
15576469767
15576474955
15576480509
15576484782
15576494669
15576500102
15576504008
15576509501
15576513468
15576519999
15576526041
15576531352
15576536784
15576542399
15576548075
15576553141
15576558756
15576565165
15576570414
15576575907
15576581644
15576587809
15576591288
15576597330
15576603190
15576608927
15576614603
15576618937
15576624430
15576628641
15576633036
15576638590
15576643412
15576650126
15576654154
15576659586
15576665629
15576670206
15576674845
15576680582
15576687357
15576692484
15576698954
15576704386
15576709146
15576712870
15576718729
15576722757
15576730081
15576736429
15576741922
15576746439
15576752848
15576758646
15576764383
15576769022
15576775064
15576783609
15576790994
15576797830
15576803873
15576810892
15576817117
15576822488
15576827432
15576833780
15576839944
15576845010
15576850137
15576854410
15576859964
15576865213
15576871866
15576877176
15576881448
15576886392
15576890542
15576895791
15576900918
15576907083
15576911844
15576917398
15576922769
15576928323
15576932657
15576938638
15576943460
15576947366
15576953775
15576958474
15576963113
15576968362
15576972329
15576977212
15576982827
15576987100
15576993203
15576997293
15577003579
15577007852
15577012612
15577017861
15577024453
15577029031
15577035623
15577040261
15577045938
15577050515
15577055215
15577060647
15577066445
15577072793
15577078042
15577082437
15577088845
15577093118
15577098428
15577104592
15577111184
15577116006
15577122475
15577128274
15577133828
15577139260
15577145547
15577149941
15577156899
15577164040
15577170083
15577175698
15577181802
15577186196
15577191872
15577197793
15577206154
15577211953
15577218972
15577223427
15577229409
15577235573
15577239846
15577246377
15577252053
15577258156
15577264077
15577269143
15577276162
15577281533
15577285805
15577291481
15577298317
15577304482
15577310952
15577316445
15577321633
15577327736
15577333046
15577338173
15577343422
15577351662
15577358742
15577363503
15577369484
15577376747
15577382057
15577389626
15577395241
15577405006
15577410561
15577418007
15577423622
15577429054
15577434608
15577440834
15577445717
15577451759
15577459450
15577465248
15577470863
15577474892
15577481300
15577486122
15577492714
15577498939
15577508095
15577517799
15577527931
15577535988
15577544960
15577551185
15577557167
15577562965
15577568885
15577573890
15577579017
15577584755
15577589882
15577595069
15577600502
15577606666
15577612770
15577618202
15577623024
15577628822
15577634559
15577639625
15577644447
15577649879
15577655128
15577660621
15577665992
15577672035
15577676551
15577682105
15577689246
15577694068
15577701331
15577706336
15577711402
15577716346
15577723609
15577727882
15577733375
15577739906
15577747108
15577752357
15577758887
15577764381
15577769996
15577775184
15577781348
15577785682
15577792701
15577798377
15577804542
15577809546
15577816382
15577824317
15577827796
15577834571
15577841041
15577847876
15577853125
15577859778
15577864844
15577870032
15577875708
15577881507
15577886573
15577892493
15577899451
15577905799
15577910926
15577916297
15577922827
15577928626
15577933203
15577937903
15577945960
15577952124
15577957190
15577962805
15577969275
15577973242
15577980139
15577986121
15577991797
15577996863
15578005896
15578011816
15578017371
15578024756
15578030676
15578037390
15578043249
15578049048
15578054785
15578061926
15578066382
15578072913
15578078406
15578081579
15578092444
15578097937
15578104040
15578109595
15578115759
15578121191
15578126806
15578131384
15578136206
15578144568
15578149328
15578156469
15578161108
15578167822
15578173437
15578178503
15578184607
15578192175
15578198645
15578204321
15578209143
15578214758
15578221167
15578226049
15578230322
15578236975
15578241796
15578248693
15578253210
15578260595
15578264868
15578271032
15578276037
15578282079
15578288000
15578293859
15578298986
15578305334
15578310949
15578315160
15578322240
15578326086
15578333471
15578338354
15578345922
15578351903
15578356054
15578361730
15578367345
15578373998
15578379247
15578385717
15578393957
15578398290
15578405492
15578410375
15578416723
15578421239
15578427343
15578434240
15578440343
15578446691
15578451146
15578458043
15578463781
15578468847
15578473851
15578482518
15578486974
15578492772
15578498876
15578504491
15578510411
15578515172
15578520970
15578528173
15578534032
15578539525
15578545384
15578555943
15578560643
15578567113
15578570287
15578577916
15578584020
15578589818
15578596349
15578602086
15578607213
15578614476
15578621617
15578629308
15578636266
15578646031
15578651280
15578657078
15578661595
15578669163
15578674779
15578680089
15578686131
15578690831
15578695408
15578700841
15578705357
15578710972
15578716282
15578722935
15578726109
15578733189
15578739110
15578744786
15578749485
15578754612
15578760716
15578766697
15578770726
15578777745
15578781224
15578788731
15578792759
15578800511
15578805210
15578809727
15578815403
15578821263
15578826329
15578832676
15578838230
15578842259
15578846592
15578851841
15578860508
15578864475
15578871067
15578876560
15578881931
15578886631
15578891819
15578897617
15578903233
15578908299
15578914646
15578921970
15578928440
15578934360
15578941746
15578946751
15578956455
15578960667
15578966892
15578974644
15578979465
15578985874
15578990574
15578996128
15579003330
15579008762
15579014194
15579018833
15579025974
15579033542
15579038059
15579042759
15579052768
15579058078
15579064975
15579071506
15579077610
15579082553
15579086826
15579094455
15579101047
15579106784
15579111240
15579116611
15579121189
15579126621
15579131870
15579137607
15579143588
15579149326
15579153964
15579161289
15579165927
15579173984
15579180332
15579187656
15579195346
15579205051
15579210727
15579217563
15579225253
15579231784
15579236484
15579243076
15579248874
15579253329
15579259006
15579264743
15579271030
15579276767
15579280734
15579288058
15579299838
15579303500
15579312350
15579317233
15579325229
15579330111
15579336276
15579342624
15579349093
15579355563
15579360446
15579366916
15579371310
15579377597
15579381686
15579389865
15579396029
15579401095
15579406100
15579411593
15579417697
15579423373
15579428195
15579433993
15579440158
15579447482
15579452365
15579458102
15579462924
15579468905
15579473239
15579478976
15579487521
15579493441
15579497897
15579503756
15579510470
15579515719
15579520846
15579526339
15579532992
15579539461
15579544161
15579551791
15579556124
15579562716
15579566744
15579571078
15579581515
15579586886
15579592501
15579598421
15579604220
15579610201
15579615999
15579622835
15579630465
15579637240
15579642000
15579648531
15579653658
15579658297
15579662996
15579671419
15579676729
15579683199
15579687777
15579693880
15579699251
15579704927
15579710726
15579717562
15579723543
15579729341
15579735018
15579741304
15579745149
15579752596
15579756685
15579763460
15579770540
15579774996
15579781587
15579786043
15579793733
15579798921
15579803987
15579813142
15579819734
15579823457
15579830049
15579834138
15579840242
15579847322
15579852998
15579857210
15579863618
15579870393
15579876070
15579880037
15579885103
15579891084
15579896272
15579903169
15579909822
15579914094
15579919465
15579926240
15579930696
15579935762
15579941011
15579949373
15579955537
15579960847
15579964753
15579970979
15579975679
15579982637
15579987153
15579993928
15579998017
15580003877
15580008210
15580014253
15580018891
15580025300
15580029450
15580037690
15580042390
15580049165
15580054719
15580060639
15580065644
15580070283
15580075959
15580082002
15580088532
15580094270
15580098786
15580104401
15580109650
15580115144
15580121735
15580128571
15580134675
15580141022
15580146332
15580151948
15580158662
15580164216
15580168793
15580174531
15580181306
15580189789
15580197053
15580205842
15580212555
15580221467
15580228913
15580235077
15580244416
15580250275
15580254364
15580260651
15580266694
15580272370
15580276337
15580282257
15580290436
15580294953
15580302216
15580307892
15580313019
15580317475
15580324982
15580329560
15580336212
15580342377
15580348419
15580353546
15580359894
15580365204
15580370819
15580375275
15580382233
15580388702
15580396210
15580403229
15580409088
15580413483
15580419464
15580424469
15580431122
15580438751
15580444794
15580450409
15580456268
15580460541
15580465546
15580472198
15580478790
15580487213
15580493316
15580498260
15580504364
15580509796
15580515655
15580519439
15580524322
15580531219
15580536285
15580542999
15580548492
15580553497
15580559173
15580564300
15580569305
15580578765
15580585113
15580590789
15580596221
15580601715
15580606475
15580612701
15580618621
15580622405
15580629180
15580635284
15580641265
15580644866
15580651580
15580657440
15580662505
15580667632
15580675140
15580681732
15580686187
15580691558
15580697234
15580702483
15580708160
15580713958
15580720672
15580725677
15580731841
15580738616
15580742705
15580749236
15580753203
15580759185
15580765533
15580770476
15580778350
15580783416
15580789947
15580794463
15580799773
15580805266
15580811309
15580818816
15580824798
15580830230
15580835723
15580842864
15580848784
15580854033
15580858916
15580864775
15580871367
15580877471
15580883818
15580889556
15580894438
15580900054
15580905181
15580912078
15580918975
15580925139
15580928008
15580935027
15580939543
15580946379
15580954924
15580961333
15580967436
15580972441
15580979826
15580986052
15580992156
15580996916
15581003813
15581010954
15581020110
15581027495
15581033598
15581041350
15581045866
15581051482
15581056608
15581061491
15581068022
15581072294
15581079069
15581085234
15581090300
15581095366
15581100187
15581105925
15581115507
15581121977
15581127531
15581131620
15581138090
15581142851
15581147978
15581152861
15581161467
15581168119
15581173735
15581179289
15581184843
15581190458
15581195646
15581200285
15581206144
15581212919
15581218778
15581224577
15581230741
15581235868
15581240873
15581246794
15581253690
