15478312182
15478318407
15478323473
15478328295
15478334276
15478339281
15478343737
15478349047
15478355394
15478361315
15478365587
15478370470
15478377367
15478383226
15478388414
15478394579
15478400560
15478406481
15478412950
15478419603
15478426744
15478432115
15478438036
15478445055
15478452135
15478458605
15478464037
15478471727
15478478258
15478482286
15478491075
15478498338
15478508348
15478515733
15478523546
15478529283
15478534715
15478547044
15478556077
15478562913
15478570909
15478575853
15478581956
15478586656
15478593431
15478598558
15478605638
15478609239
15478617601
15478625352
15478628770
15478637498
15478643663
15478648790
15478656358
15478663011
15478670030
15478676194
15478682420
15478689073
15478696153
15478702867
15478710252
15478716722
15478721726
15478729356
15478735703
15478742417
15478750779
15478758103
15478763169
15478770860
15478776475
15478785813
15478792283
15478798814
15478808884
15478814805
15478821091
15478829209
15478833359
15478845017
15478852097
15478857651
15478865891
15478872239
15478879258
15478887009
15478892502
15478900376
15478909348
15478916489
15478925095
15478931931
15478938279
15478945725
15478951584
15478958176
15478965561
15478972214
15478978379
15478983261
15478992417
15478998886
15479005234
15479014145
15479020859
15479028916
15479035690
15479043747
15479051499
15479058884
15479067123
15479073532
15479081345
15479088852
15479097702
15479104233
15479111679
15479115219
15479124130
15479131882
15479139267
15479145431
15479150253
15479158249
15479165695
15479171493
15479178451
15479183761
15479191757
15479196640
15479203293
15479208847
15479217697
15479221786
15479230697
15479237899
15479242721
15479249984
15479255783
15479265243
15479271713
15479277816
15479284286
15479290695
15479297225
15479304061
15479310348
15479318527
15479324508
15479332137
15479337386
15479345077
15479350509
15479359359
15479365707
15479372726
15479376449
15479384994
15479392074
15479398421
15479406600
15479413009
15479420699
15479427840
15479434798
15479442733
15479448897
15479456649
15479464095
15479469893
15479475203
15479482833
15479488570
15479495528
15479500899
15479509871
15479517196
15479523360
15479531295
15479539046
15479546981
15479555159
15479563643
15479572982
15479581526
15479588301
15479599837
15479611861
15479620589
15479626082
15479633772
15479641890
15479648787
15479655989
15479666243
15479674910
15479681197
15479690230
15479694441
15479701460
15479707136
15479714156
15479719710
15479726301
15479731612
15479736983
15479741804
15479747603
15479753035
15479758955
15479763716
15479769331
15479772566
15479778120
15479782210
15479787703
15479792585
15479796919
15479802046
15479808638
15479814741
15479820112
15479824995
15479831160
15479835676
15479840315
15479847273
15479851912
15479858320
15479862471
15479867659
15479875471
15479880171
15479886701
15479891584
15479898237
15479906599
15479911176
15479917036
15479921064
15479929182
15479933027
15479939924
15479945539
15479952253
15479958051
15479963117
15479968732
15479975324
15479979780
15479985883
15479992963
15479997907
15480004316
15480010114
15480015485
15480022565
15480028242
15480035505
15480041547
15480045270
15480051984
15480057172
15480063398
15480070112
15480075727
15480082013
15480086042
15480090497
15480098493
15480103132
15480109418
15480116437
15480121991
15480126630
15480132306
15480137922
15480141401
15480150495
15480154218
15480161054
15480167279
15480172956
15480178022
15480183332
15480191083
15480198041
15480204144
15480210553
15480215924
15480221845
15480229047
15480234296
15480239057
15480247540
15480255292
15480263654
15480269513
15480275983
15480281964
15480288251
15480294232
15480300946
15480307721
15480315289
15480320233
15480325238
15480332562
15480335980
15480344098
15480350812
15480356183
15480362958
15480368573
15480374188
15480379498
15480384869
15480390545
15480396588
15480400738
15480405621
15480410687
15480415020
15480420453
15480426190
15480431988
15480435711
15480441449
15480446392
15480452313
15480457562
15480463726
15480468731
15480473431
15480478131
15480483074
15480488446
15480494732
15480498394
15480507549
15480512371
15480517193
15480522564
15480527447
15480531536
15480537762
15480541912
15480549725
15480555767
15480561749
15480567059
15480573467
15480576519
15480586529
15480590923
15480596661
15480602093
15480607769
15480612469
15480618023
15480623943
15480629803
15480637676
15480642437
15480648479
15480652752
15480657512
15480661846
15480668377
15480672893
15480678875
15480683452
15480689800
15480692852
15480699627
15480704204
15480709819
15480714153
15480721233
15480725994
15480731609
15480736065
15480741802
15480746074
15480752544
15480755779
15480762554
15480767559
15480773235
15480777629
15480783977
15480791240
15480796733
15480803996
15480808940
15480816265
15480823772
15480830913
15480839397
15480846904
15480853496
15480863750
15480872783
15480880656
15480889262
15480899943
15480909404
15480916606
15480924174
15480931743
15480940410
15480948039
15480954021
15480961406
15480969645
15480976481
15480987651
15480992473
15481002910
15481007304
15481017863
15481029033
15481034831
15481047465
15481052165
15481060343
15481067973
15481075053
15481082621
15481088908
15481096964
15481102397
15481111186
15481116923
15481125773
15481134074
15481141154
15481147685
15481155497
15481162272
15481170451
15481177775
15481187907
15481192301
15481202189
15481206644
15481218729
15481223246
15481232218
15481237040
15481246805
15481253397
15481261759
15481270182
15481275797
15481284647
15481290506
15481299295
15481305277
15481312784
15481318949
15481327677
15481333353
15481341898
15481350260
15481357584
15481364176
15481372599
15481379190
15481387735
15481396097
15481403360
15481407938
15481417520
15481424783
15481430582
15481438516
15481446451
15481453226
15481460367
15481467264
15481474466
15481482034
15481487772
15481496439
15481505106
15481514932
15481519205
15481530191
15481534891
15481543619
15481552164
15481561319
15481570413
15481578225
15481585428
15481593179
15481600625
15481609353
15481617349
15481626016
15481634317
15481640542
15481647073
15481656533
15481664651
15481672097
15481678262
15481686502
15481694863
15481702859
15481709451
15481717263
15481726052
15481732156
15481740334
15481746194
15481753274
15481760720
15481768533
15481774026
15481783974
15481790688
15481798501
15481805215
15481811806
15481817910
15481826089
15481832131
15481840371
15481848183
15481854043
15481860329
15481870583
15481878335
15481884194
15481892861
15481900612
15481908059
15481915566
15481922280
15481927834
15481935646
15481942055
15481952736
15481958657
15481966164
15481974221
15481980934
15481987526
15481997353
15482004006
15482014321
15482019692
15482028542
15482035439
15482046303
15482053444
15482062050
15482069313
15482079079
15482086220
15482096474
15482101723
15482112465
15482119850
15482129005
15482136329
15482143837
15482148781
15482155556
15482160499
15482166847
15482172584
15482176979
15482183632
15482190590
15482195717
15482201881
15482206886
15482212989
15482217811
15482223671
15482230384
15482236305
15482241066
15482246559
15482250953
15482257667
15482262611
15482270606
15482277687
15482283668
15482288612
15482295265
15482300941
15482306617
15482312476
15482317848
15482325416
15482331214
15482338294
15482343543
15482349830
15482355445
15482362159
15482368446
15482373450
15482379615
15482387489
15482393287
15482398231
15482404151
15482410682
15482417335
15482422339
15482429481
15482434669
15482441138
15482445899
15482451697
15482459937
15482464087
15482470740
15482476478
15482482947
15482488685
15482495337
15482500953
15482506080
15482512915
15482518348
15482523902
15482529517
15482536170
15482541175
15482546180
15482553321
15482560462
15482566077
15482573218
15482579077
15482584021
15482589759
15482597632
15482603674
15482610205
15482616919
15482622534
15482630103
15482635230
15482641394
15482647070
15482653418
15482659705
15482665198
15482670508
15482677222
15482682471
15482689246
15482694311
15482700171
15482706152
15482708166
15482713965
15482722327
15482730078
15482734534
15482739233
15482744848
15482751440
15482758398
15482763098
15482769323
15482774023
15482780859
15482785925
15482789343
15482799048
15482802832
15482808996
15482814428
15482820410
15482825476
15482832983
15482839758
15482845190
15482849890
15482855749
15482862829
15482868261
15482875891
15482881933
15482888464
15482894872
15482900549
15482906347
15482911413
15482918066
15482925939
15482931188
15482938696
15482944982
15482949682
15482955969
15482960363
15482965978
15482971532
15482977209
15482981786
15482988073
15482993749
15483000707
15483005895
15483012609
15483018712
15483024999
15483029760
15483033422
15483042333
15483046972
15483054723
15483060033
15483067418
15483072667
15483079015
15483084203
15483091283
15483095861
15483101537
15483108556
15483114537
15483119298
15483122838
15483130834
15483136815
15483141942
15483147496
15483153844
15483157811
15483167333
15483172704
15483178990
15483185399
15483191014
15483195531
15483201879
15483207250
15483214940
15483219457
15483222997
15483231419
15483235509
15483243749
15483247350
15483253880
15483259862
15483268163
15483272252
15483278905
15483284642
15483292210
15483297703
15483303685
15483308690
15483313939
15483319310
15483326512
15483332799
15483337987
15483342869
15483350194
15483354832
15483358555
15483367161
15483375218
15483381016
15483385777
15483396092
15483405125
15483413365
15483422764
15483429112
15483434056
15483445835
15483453648
15483463352
15483472141
15483482029
15483490513
15483498875
15483506382
15483515049
15483523350
15483530796
15483541477
15483547459
15483559299
15483567295
15483575840
15483585178
15483591648
15483599155
15483608616
15483619114
15483625950
15483635898
15483643039
15483650730
15483657932
15483667209
15483674228
15483683506
15483691929
15483700657
15483708408
15483717197
15483724521
15483731662
15483744419
15483752109
15483759738
15483769687
15483779209
15483785068
15483793857
15483802707
15483809909
15483818881
15483826816
15483835361
15483843845
15483850803
15483861423
15483869296
15483877475
15483884860
15483893893
15483902255
15483909030
15483917148
15483924838
15483936007
15483943820
15483952426
15483960605
15483969943
15483977572
15483986178
15483992831
15484002414
15484008029
15484018344
15484024020
15484035372
15484040744
15484051364
15484056552
15484068026
15484073519
15484084017
15484089449
15484101595
15484106722
15484118380
15484125765
15484134737
15484142672
15484151156
15484159274
15484165804
15484174410
15484181063
15484188021
15484196383
15484202486
15484209139
15484219454
15484230807
15484237704
15484247652
15484252474
15484262667
15484270601
15484278414
15484287935
15484297701
15484306795
15484316500
15484323397
15484331392
15484338594
15484348787
15484357820
15484364717
15484374483
15484378755
15484388521
15484397005
15484404756
15484411287
15484418977
15484427339
15484435884
15484445100
15484452730
15484461580
15484468538
15484475008
15484484590
15484492830
15484502046
15484508699
15484515779
15484523164
15484531526
15484537874
15484547273
15484557954
15484564973
15484572664
15484579500
15484585481
15484593599
15484602571
15484611909
15484618684
15484627412
15484636445
15484644990
15484651582
15484659822
15484667085
15484673127
15484679780
15484683808
15484690888
15484694612
15484703889
15484709199
15484717133
15484721467
15484729890
15484733979
15484741120
15484745087
15484752717
15484756562
15484763093
15484767976
15484774262
15484778168
15484785859
15484790009
15484797639
15484801911
15484810639
15484814545
15484821503
15484824921
15484831818
15484835724
15484842804
15484849152
15484856904
15484862214
15484867218
15484872101
15484878876
15484884369
15484892182
15484897492
15484903107
15484907685
15484915375
15484921112
15484927887
15484933564
15484940216
15484947541
15484950226
15484959198
15484962677
15484972260
15484977448
15484984406
15484990509
15484996369
15485002594
15485008698
15485014435
15485021332
15485026581
15485032623
15485038055
15485044830
15485048737
15485056976
15485060822
15485069122
15485072784
15485079559
15485085724
15485092438
15485097565
15485102508
15485108124
15485116669
15485121551
15485126434
15485133270
15485139435
15485146820
15485152679
15485157867
15485161407
15485168426
15485173675
15485180694
15485186248
15485193634
15485198883
15485205658
15485211090
15485217498
15485222869
15485229644
15485236297
15485242645
15485248138
15485256195
15485262054
15485267303
15485271942
15485275848
15485285919
15485289581
15485297088
15485301177
15485309112
15485314483
15485320159
15485325897
15485332061
15485336639
15485342681
15485349456
15485356475
15485364043
15485376678
15485385894
15485398406
15485406707
15485417754
15485427093
15485438445
15485446746
15485455657
15485465239
15485472930
15485479888
15485487700
15485495696
15485502654
15485509673
15485517363
15485526702
15485534880
15485541228
15485549651
15485560149
15485569365
15485577056
15485585173
15485593352
15485601836
15485609648
15485615080
15485635161
15485643340
15485652922
15485661711
15485672331
15485681120
15485689177
15485698149
15485706694
15485715422
15485723356
15485731230
15485735930
15485747221
15485756804
15485762907
15485772734
15485779997
15485791899
15485798857
15485806791
15485814604
15485822782
15485830473
15485839201
15485847502
15485854704
15485863005
15485869657
15485879362
15485887296
15485895536
15485903959
15485911466
15485918485
15485926908
15485934171
15485943021
15485950895
15485958646
15485976652
15485997098
15486017118
15486034330
15486052640
15486072538
15486091886
15486111295
15486130643
15486146146
15486157681
15486166776
15486178067
15486193204
15486208707
15486224149
15486241055
15486256924
15486268887
15486278592
15486289334
15486299527
15486310818
15486320889
15486330838
15486341641
15486352383
15486362271
15486372586
15486384427
15486394497
15486403775
15486411892
15486421902
15486431118
15486439541
15486447964
15486458340
15486467434
15486480801
15486491116
15486499783
15486510159
15486525295
15486536282
15486551235
15486561428
15486570095
15486582607
15486591518
15486601284
15486611843
15486622524
15486632595
15486637966
15486650966
15486662136
15486672451
15486682888
15486690822
15486702846
15486713771
15486720729
15486732448
15486742031
15486751247
15486760707
15486772243
15486780727
15486794032
15486803615
15486810939
15486821742
15486831874
15486843654
15486849574
15486861049
15486872035
15486883449
15486897304
15486909450
15486925319
15486931910
15486951014
15486964564
15486977748
15486989039
15487003505
15487015589
15487029566
15487041773
15487054713
15487064540
15487076380
15487086390
15487096217
15487108790
15487117701
15487127284
15487133936
15487141016
15487146876
15487152796
15487159327
15487166163
15487172022
15487178187
15487185145
15487191492
15487198145
15487202723
15487209376
15487217493
15487224390
15487229761
15487235499
15487240809
15487249048
15487255518
15487261744
15487268213
15487275049
15487282496
15487285913
15487294336
15487301477
15487307398
15487314600
15487321497
15487330286
15487337427
15487345239
15487354395
15487360925
15487368738
15487378137
15487383569
15487390466
15487396082
15487405115
15487412256
15487418543
15487425806
15487432153
15487438745
15487445215
15487451623
15487458765
15487466577
15487472009
15487481103
15487486474
15487493799
15487501306
15487508386
15487513452
15487520715
15487527368
15487533838
15487537683
15487546655
15487550805
15487562036
15487569543
15487575097
15487582360
15487587060
15487589929
15487597497
15487599450
15487607446
15487610925
15487617883
15487624414
15487630090
15487635339
15487640039
15487646264
15487652795
15487658959
15487663903
15487670373
15487675317
15487682153
15487686425
15487695825
15487704614
15487724511
15487733422
15487741357
15487750024
15487757470
15487764855
15487771325
15487779381
15487784630
15487788964
15487793236
15487797753
15487802819
15487807580
15487811730
15487815697
15487820397
15487824059
15487828515
15487833397
15487840905
15487845665
15487850304
15487855126
15487859887
15487863488
15487870202
15487877160
15487881066
15487886803
15487890282
15487895409
15487900231
15487908532
15487915917
15487922020
15487928063
15487933068
15487937950
15487943810
15487947960
15487953881
15487956688
15487964073
15487968346
15487973229
15487978233
15487982262
15487989159
15487992638
15487998253
15488001976
15488008507
15488013939
15488018822
15488025291
15488029320
15488034142
15488039085
15488044395
15488049644
15488054405
15488059532
15488063133
15488067406
15488071983
15488077598
15488082298
15488086937
15488089928
15488096214
15488099876
15488106224
15488109703
15488115928
15488119407
15488125023
15488131309
15488136009
15488140159
15488145042
15488151512
15488160118
15488167442
15488174705
15488183128
15488190391
15488196434
15488201927
15488207298
15488212364
15488217857
15488223045
15488229942
15488235862
15488240440
15488245933
15488252830
15488258323
15488263999
15488269248
15488276817
15488280235
15488287620
15488290977
15488299400
15488302635
15488310264
15488315147
15488322593
15488326316
15488331992
15488335532
15488343589
15488346824
15488353233
15488360618
15488365317
15488368919
15488376670
15488382957
15488390159
15488395591
15488399863
15488404746
15488410972
15488416343
15488423606
15488428367
15488434958
15488439780
15488446982
15488453086
15488458884
15488464194
15488469382
15488474326
15488479819
15488486533
15488491111
15488495566
15488503318
15488507468
15488512290
15488518393
15488524069
15488530478
15488534812
15488541281
15488547751
15488552451
15488555930
15488562949
15488566733
15488573325
15488579428
15488584799
15488589865
15488597250
15488603720
15488609030
15488613913
15488620505
15488627280
15488632956
15488637717
15488644858
15488649374
15488653220
15488660971
15488665488
15488675009
15488680197
15488689047
15488698752
15488705649
15488712118
15488721884
15488728781
15488738669
15488747763
15488750692
15488763327
15488772238
15488778769
15488783651
15488796102
15488803183
15488811911
15488817953
15488828268
15488834005
15488844381
15488852072
15488860311
15488867513
15488875448
15488882406
15488891439
15488899862
15488907369
15488916280
15488923849
15488932821
15488938985
15488947774
15488952596
15488964254
15488969076
15488979940
15488987264
15488997091
15489003988
15489012044
15489018636
15489026693
15489033895
15489042135
15489050985
15489058675
15489064595
15489074117
15489080098
15489089925
15489097066
15489107747
15489116719
15489123067
15489128438
15489137044
15489143086
15489152059
15489160970
15489171468
15489178304
15489186055
15489195149
15489202535
15489209004
15489221577
15489230794
15489238972
15489246480
15489253133
15489262593
15489269490
15489276814
15489285176
15489292073
15489298359
15489307210
15489315877
15489324055
15489330342
15489339253
15489344990
15489353291
15489359639
15489368489
15489376301
15489384541
15489390950
15489400349
15489408894
15489417195
15489424031
15489432820
15489443196
15489451801
15489458759
15489467060
15489473347
15489484150
15489490437
15489497212
15489505573
15489513996
15489521198
15489531086
15489537556
15489545978
15489552448
15489560322
15489569111
15489576496
15489585285
15489590534
15489600910
15489606037
15489615131
15489625446
15489632831
15489637897
15489649616
15489657489
15489663715
15489670917
15489680255
15489685321
15489695819
15489703388
15489710102
15489716510
15489725727
15489732440
15489742389
15489749164
15489758258
15489764850
15489771503
15489779743
15489786456
15489794940
15489799945
15489809589
15489814655
15489825031
15489832599
15489840655
15489847369
15489853900
15489860553
15489870380
15489876910
15489886554
15489892962
15489904864
15489911822
15489918536
15489928058
15489935321
15489941485
15489950213
15489959308
15489966143
15489972918
15489981280
15489990802
15489997943
15490006610
15490013262
15490022540
15490030352
15490037493
15490046282
15490052630
15490060137
15490065325
15490070818
15490076312
15490080889
15490087542
15490092913
15490097674
15490100909
15490109026
15490112444
15490119036
15490122637
15490130328
15490135332
15490140826
15490145403
15490152422
15490158099
15490165179
15490168413
15490174700
15490179339
15490185564
15490189104
15490197466
15490201739
15490209673
15490216021
15490221392
15490225725
15490232134
15490237078
15490244829
15490248552
15490256731
15490261248
15490270586
15490274614
15490281084
15490286943
15490294329
15490299700
15490305010
15490310442
15490316912
15490322466
15490328874
15490334429
15490340593
15490345537
15490352495
15490356279
15490364885
15490370378
15490374956
15490382768
15490388384
15490394731
15490400346
15490407488
15490413225
15490418962
15490427141
15490434160
15490439714
15490446611
15490452165
15490457170
15490462785
15490467851
15490473161
15490477678
15490483842
15490490434
15490495256
15490500810
15490507707
15490514543
15490520158
15490526628
15490531450
15490537492
15490540849
15490547380
15490552263
15490557512
15490564347
15490574845
15490581620
15490586625
15490592790
15490597001
15490603959
15490610795
15490618302
15490623429
15490628007
15490632707
15490638078
15490641618
15490647111
15490651017
15490659928
15490663835
15490670182
15490676652
15490681535
15490687943
15490691911
15490695451
15490705033
15490710404
15490716264
15490720353
15490724747
15490730973
15490735734
15490742692
15490747391
15490753251
15490759720
15490764664
15490769303
15490775651
15490781144
15490787613
15490793473
15490800492
15490805680
15490811173
15490816544
15490823929
15490829300
15490838273
15490844254
15490850541
15490852433
15490862931
15490869339
15490873917
15490880143
15490888077
15490894547
15490899369
15490905838
15490913040
15490918228
15490922501
15490929215
15490935929
15490942459
15490946976
15490952652
15490957962
15490964737
15490969986
15490976639
15490983048
15490987808
15490992874
15491000443
15491003860
15491010818
15491014114
15491021866
15491028458
15491034805
15491038345
15491046158
15491052383
15491057876
15491061783
15491070328
15491075210
15491083877
15491090347
15491101455
15491109573
15491116348
15491121719
15491132705
15491138076
15491147537
15491153213
15491166641
15491169632
15491181716
15491187698
15491199356
15491205764
15491216140
15491225295
15491235244
15491240981
15491249832
15491256790
15491269607
15491279434
15491287795
15491301345
15491312759
15491322158
15491332412
15491343764
15491354507
15491366897
15491378982
15491390456
15491398879
15491405654
15491418166
15491427260
15491435683
15491443618
15491456496
15491465468
15491475722
15491486464
15491495009
15491504897
15491510695
15491522475
15491528090
15491539443
15491548842
15491554579
15491563307
15491571059
15491578810
15491584792
15491594069
15491602553
15491611220
15491616896
15491625929
15491633375
15491639906
15491647780
15491654738
15491663527
15491672194
15491679823
15491686476
15491694838
15491703810
15491711805
15491720595
15491730116
15491737928
15491744337
15491753126
15491759596
15491768690
15491775343
15491785170
15491794813
15491801283
15491807569
15491815504
15491822035
15491831373
15491838087
15491848829
15491853895
15491862623
15491868849
15491877027
15491883375
15491891248
15491902357
15491908643
15491915907
15491923231
15491929822
15491938612
15491945203
15491954786
15491959424
15491971326
15491976453
15491985731
15491993604
15492001417
15492006116
15492016370
15492026197
15492036634
15492045179
15492053479
15492060315
15492067517
15492073621
15492080762
15492090100
15492098157
15492107556
15492113782
15492122754
15492129407
15492137525
15492144055
15492154859
15492159985
15492170117
15492177991
15492183972
15492190381
15492199780
15492204297
15492215955
15492225354
15492233289
15492237988
15492247021
15492256116
15492261975
15492268323
15492279370
15492286267
15492294201
15492301404
15492309399
15492317456
15492325024
15492331799
15492339978
15492348156
15492355908
15492362255
15492370068
15492378369
15492386181
15492393811
15492401867
15492408886
15492416638
15492424206
15492432202
15492440869
15492446850
15492455822
15492464794
15492472790
15492481274
15492487743
15492496838
15492504223
15492512463
15492520519
15492527721
15492536327
15492542980
15492551952
15492559521
15492572948
15492577892
15492592846
15492600475
15492608410
15492616466
15492622448
15492631237
15492637218
15492647411
15492653576
15492662059
15492668651
15492677623
15492683727
15492690563
15492696361
15492702159
15492706432
15492713329
15492723033
15492729503
15492733592
15492742320
15492746044
15492752818
15492756297
15492763500
15492767528
15492776500
15492780528
15492787425
15492793529
15492797801
15492804393
15492809581
15492814708
15492819835
15492828441
15492836803
15492843150
15492850352
15492854075
15492860789
15492863475
15492869151
15492876414
15492880382
15492886485
15492892283
15492898082
15492903209
15492909251
15492916942
15492921824
15492927928
15492933421
15492940989
15492943065
15492952220
15492954051
15492964671
15492969371
15492976695
15492983592
15492988047
15492994578
15492999339
15493005870
15493009104
15493017161
15493020945
15493027476
15493034068
15493037547
15493044138
15493048899
15493054270
15493060069
15493064768
15493069651
15493075633
15493082224
15493092661
15493097544
15493104258
15493109995
15493116526
15493121348
15493127695
15493134348
15493140147
15493146067
15493151072
15493157236
15493161875
15493166086
15493171152
15493175303
15493181833
15493187327
15493189219
15493197580
15493203257
15493207956
15493211313
15493218393
15493221933
15493231516
15493237436
15493241648
15493246225
15493252268
15493257578
15493262400
15493269419
15493276560
15493282480
15493287424
15493293650
15493299326
15493304453
15493309580
15493313974
15493321237
15493327707
15493334177
15493339548
15493345712
15493349069
15493355783
15493359262
15493366464
15493369455
15493376047
15493379343
15493386789
15493390329
15493396616
15493400217
15493406564
15493411813
15493417123
15493422617
15493428537
15493432016
15493437326
15493443552
15493449716
15493454355
15493460946
15493465219
15493471261
15493475717
15493482309
15493487131
15493494394
15493499399
15493505990
15493511422
15493517953
15493524667
15493530282
15493534616
15493542184
15493546395
15493553353
15493557565
15493562936
15493568612
15493573739
15493578012
15493584237
15493588754
15493594979
15493599130
15493605722
15493609872
15493615060
15493619271
15493625314
15493631539
15493639901
15493645577
15493652047
15493658151
15493662972
15493670663
15493676400
15493681710
15493686410
15493692147
15493698922
15493702584
15493709176
15493714486
15493719247
15493725228
15493729623
15493735848
15493741036
15493747567
15493752267
15493759041
15493763375
15493769112
15493773324
15493779610
15493784371
15493787606
15493797493
15493804574
15493812874
15493817940
15493828438
15493837655
15493845162
15493850167
15493859383
15493864327
15493876656
15493882210
15493890938
15493898079
15493908333
15493913643
15493926155
15493933846
15493942757
15493947823
15493956368
15493963387
15493974678
15493979378
15493988899
15493998421
15494005623
15494010628
15494021370
15494026680
15494035713
15494043281
15494050972
15494057136
15494064949
15494074348
15494082344
15494088630
15494096321
15494102791
15494107551
15494119575
15494126167
15494134529
15494142463
15494149543
15494154487
15494164680
15494170173
15494180244
15494185371
15494195259
15494202094
15494210029
15494216865
15494226997
15494234504
15494240547
15494248969
15494256416
15494265083
15494271858
15494280402
15494286811
15494295295
15494301398
15494309394
15494314826
15494326301
15494331489
15494342353
15494347297
15494356696
15494364203
15494373664
15494381354
15494390326
15494397468
15494405707
15494412726
15494420844
15494427619
15494435614
15494442389
15494453986
15494460944
15494467780
15494474250
15494483405
15494489997
15494498603
15494504706
15494511969
15494521124
15494529975
15494536383
15494541327
15494550360
15494557929
15494567572
15494572577
15494582159
15494589240
15494597357
15494603766
15494614203
15494622076
15494629034
15494638068
15494648443
15494656805
15494665350
15494671942
15494680060
15494688788
15494695440
15494704229
15494711920
15494720953
15494730902
15494739264
15494753363
15494760138
15494767218
15494781439
15494789923
15494795904
15494800543
15494809393
15494813848
15494824407
15494827093
15494840215
15494846441
15494854070
15494858709
15494867559
15494878667
15494885198
15494897344
15494903387
15494911993
15494916753
15494927312
15494932012
15494941534
15494950567
15494958440
15494966253
15494973150
15494981634
15494990056
15494997136
15495005254
15495012212
15495020696
15495026738
15495037725
15495046270
15495052983
15495060308
15495066716
15495075200
15495081975
15495089055
15495095037
15495103948
15495109502
15495117009
15495122869
15495131047
15495139165
15495148747
15495155827
15495162602
15495168523
15495173589
15495179448
15495183415
15495190129
15495195134
15495200200
15495205510
15495210942
15495215581
15495221135
15495225285
15495229130
15495234624
15495239018
15495245488
15495250737
15495275883
15495280217
15495285283
15495289433
15495293889
15495300480
15495306035
15495309880
15495314640
15495321049
15495325383
15495330326
15495335698
15495342167
15495348088
15495353031
15495358097
15495362919
15495367863
15495373051
15495378666
15495382939
15495388249
15495392216
15495399174
15495403507
15495407780
15495412907
15495416874
15495423344
15495427189
15495433964
15495437748
15495441837
15495445011
15495449040
15495453861
15495457340
15495464115
15495468021
15495473515
15495476322
15495481632
15495484379
15495491642
15495494328
15495502018
15495506657
15495511722
15495516910
15495521061
15495525883
15495530704
15495534916
15495538578
15495543827
15495547916
15495553287
15495557499
15495564029
15495567081
15495574711
15495579960
15495585453
15495590152
15495595218
15495600834
15495606327
15495611515
15495614505
15495620060
15495622928
15495630375
15495636295
15495642215
15495648502
15495652103
15495657657
15495661624
15495667606
15495672000
15495678287
15495682987
15495688053
15495693851
15495698978
15495702518
15495707218
15495711429
15495719486
15495723941
15495730106
15495734439
15495739017
15495743350
15495748111
15495754581
15495763431
15495769046
15495774844
15495776553
15495786197
15495788028
15495794559
15495801395
15495809146
15495814700
15495819766
15495826114
15495831180
15495835635
15495839908
15495846438
15495852359
15495859134
15495865237
15495870242
15495874148
15495881167
15495886294
15495891543
15495896609
15495903506
15495906680
15495914187
15495917971
15495924563
15495928836
15495935733
15495939090
15495946841
15495950015
15495955935
15495960757
15495967898
15495971316
15495979006
15495982730
15495990847
15495995303
15495999148
15496004336
15496008669
15496013064
15496019351
15496023074
15496029299
15496034060
15496038332
15496044070
15496050356
15496055056
15496059390
15496066531
15496071352
15496076479
15496083620
15496087649
15496095583
15496097658
15496107241
15496112856
15496122683
15496132876
15496138125
15496147036
15496152285
15496165957
15496173891
15496182436
15496190798
15496198061
15496205324
15496213808
15496222353
15496228518
15496237307
15496245851
15496252870
15496260927
15496270143
15496276796
15496285585
15496294313
15496302980
15496309633
15496320314
15496326906
15496335024
15496343813
15496353639
15496360109
15496369020
15496376039
15496386110
15496392946
15496402040
15496410280
15496418397
15496427370
15496434450
15496443544
15496448793
15496458619
15496466310
15496477174
15496486085
15496494081
15496500978
15496509828
15496516175
15496525270
15496535646
15496542054
15496550599
15496558839
15496568238
15496575013
15496583558
15496590577
15496599122
15496604188
15496614686
15496623963
15496631654
15496639161
15496648255
15496655396
15496664491
15496672120
15496679383
15496688416
15496696839
15496704041
15496711426
15496721253
15496728577
15496737183
15496744019
15496752320
15496760438
15496769349
15496776307
15496784791
15496793457
15496800415
15496805237
15496816956
15496824952
15496832886
15496840515
15496850220
15496857239
15496866272
15496873352
15496882080
15496888855
15496896912
15496905457
15496912964
15496921387
15496928284
15496937378
15496945618
15496951904
15496958130
15496971497
15496978943
15496987366
15496994995
15497003601
15497008667
15497019592
15497024658
15497037231
15497042175
15497053100
15497058166
15497068176
15497075866
15497084411
15497091736
15497101379
15497107971
15497117187
15497123474
15497131713
15497140136
15497147827
15497156433
15497164306
15497174133
15497182739
15497189208
15497200073
15497206420
15497215453
15497222045
15497233032
15497242126
15497251891
15497259155
15497268127
15497275634
15497283630
15497291015
15497299499
15497309142
15497322082
15497329711
15497338134
15497343261
15497352599
15497359984
15497374328
15497383361
15497389769
15497398314
15497406798
15497414489
15497423644
15497431151
15497439513
15497447020
15497453612
15497461180
15497470336
15497477538
15497486449
15497493468
15497502928
15497509398
15497519591
15497526061
15497535521
15497540221
15497546324
15497552611
15497561156
15497565916
15497571776
15497577635
15497584227
15497588866
15497595091
15497600890
15497602843
15497612486
15497615904
15497624144
15497627684
15497635130
15497641173
15497645994
15497652342
15497658018
15497662901
15497668455
15497672606
15497679442
15497684446
15497690977
15497695494
15497702086
15497707762
15497709776
15497718443
15497725462
15497730467
15497737242
15497743040
15497746580
15497754454
15497758055
15497766355
15497771177
15497777342
15497782224
15497788938
15497793882
15497800047
15497804807
15497810667
15497815672
15497822874
15497827268
15497833555
15497837949
15497844846
15497851987
15497857359
15497863157
15497868284
15497873411
15497879392
15497884702
15497889646
15497896116
15497900938
15497906919
15497911863
15497918333
15497924802
15497931028
15497937253
15497943479
15497948423
15497953733
15497960752
15497967222
15497973081
15497981199
15497986326
15497992856
15497998899
15498003110
15498009580
15498012815
15498021543
15498027219
15498033139
15498040219
15498046201
15498052304
15498056516
15498062375
15498067746
15498070981
15498077207
15498082456
15498091306
15498094541
15498101438
15498104978
15498112180
15498117856
15498123349
15498128293
15498135556
15498140317
15498146237
15498151486
15498157162
15498161862
15498168515
15498172848
15498180905
15498185239
15498190976
15498197507
15498203244
15498209653
15498215329
15498221432
15498227048
15498232907
15498238217
15498244748
15498248471
15498254880
15498260922
15498266537
15498271359
15498278988
15498282528
15498288693
15498293515
15498301144
15498306210
15498311520
15498316220
15498324215
15498328976
15498335202
15498339901
15498347348
15498351864
15498357296
15498363095
15498365048
15498374203
15498379330
15498385067
15498391415
15498396420
15498399716
15498407528
15498411007
15498420406
15498423885
15498430050
15498435177
15498441464
15498446407
15498453182
15498457577
15498464718
15498471615
15498477230
15498481625
15498487728
15498494137
15498499264
15498505367
15498514095
15498519100
15498526241
15498533016
15498538509
15498544369
15498549495
15498555965
15498559627
15498569393
15498575435
15498582149
15498587703
15498594417
15498599239
15498603389
15498610225
15498617855
15498624019
15498627376
15498633785
15498638973
15498645504
15498651485
15498657100
15498660762
15498666805
15498672481
15498677913
15498683345
15498688045
15498692928
15498700923
15498705562
15498711055
15498716182
15498722957
15498729488
15498738643
15498745723
15498754451
15498761531
15498769893
15498776668
15498786067
15498791682
15498799495
15498807185
15498814021
15498821956
15498830867
15498837214
15498844905
15498852717
15498860286
15498869380
15498878535
15498885127
15498890071
15498901301
15498906733
15498917475
15498922602
15498932856
15498940425
15498949092
15498956355
15498966365
15498973872
15498983393
15498990656
15498999201
15499006159
15499014826
15499021357
15499030756
15499039179
15499047358
15499053706
15499063471
15499073481
15499081904
15499092585
15499100519
15499109431
15499118342
15499124628
15499133539
15499141840
15499146845
15499158747
15499163691
15499174677
15499182673
15499190424
15499198053
15499207087
15499214106
15499224176
15499231134
15499238398
15499245111
15499255792
15499264948
15499274591
15499281793
15499291193
15499298273
15499306207
15499316217
15499325800
15499334589
15499344171
15499352228
15499362970
15499372430
15499379144
15499385675
15499395990
15499403436
15499412958
15499421380
15499428705
15499435419
15499445062
15499451593
15499458856
15499468622
15499473748
15499484674
15499491998
15499500055
15499507074
15499516473
15499522821
15499532037
15499538324
15499548150
15499554864
15499563958
15499572442
15499579644
15499588738
15499596612
15499604913
15499610955
15499620355
15499629571
15499638665
15499643975
15499654961
15499659844
15499669976
15499677300
15499685601
15499692681
15499701531
15499708245
15499717766
15499724236
15499734307
15499741021
15499750664
15499757134
15499765801
15499774285
15499780755
15499789910
15499794854
15499805535
15499812615
15499821343
15499828972
15499838494
15499848137
15499855950
15499865227
15499873284
15499879692
15499888848
15499895867
15499904350
15499912651
15499919609
15499927971
15499937004
15499943718
15499948906
15499960258
15499970451
15499976982
15499985588
15499994072
15499998955
15500009575
15500017631
15500025139
15500032463
15500041313
15500048332
15500057182
15500064384
15500074882
15500081291
15500090812
15500098075
15500106437
15500122123
15500130302
15500137504
15500145133
15500151725
15500161491
15500168388
15500175407
15500181571
15500190177
15500196708
15500202079
15500207023
15500212943
15500217460
15500224845
15500230094
15500236747
15500241813
15500247367
15500253532
15500259391
15500263908
15500269157
15500273673
15500279777
15500283805
15500291068
15500295524
15500301261
15500307487
15500314506
15500319572
15500326163
15500330619
15500337028
15500341422
15500344779
15500353690
15500357047
15500365897
15500369498
15500376029
15500381278
15500387381
15500392997
15500399405
15500404471
15500410453
15500414969
15500422232
15500426871
15500432608
15500438346
15500443045
15500449698
15500453787
15500461539
15500464957
15500472952
15500476676
15500484244
15500489005
15500495230
15500500296
15500507803
15500511649
15500518179
15500523123
15500529776
15500537039
15500542471
15500548758
15500556265
15500561331
15500565787
15500572134
15500577261
15500583731
15500588126
15500594046
15500598929
15500605276
15500608572
15500616019
15500619498
15500627859
15500631460
15500638296
15500643728
15500649527
15500655081
15500661856
15500666678
15500672293
15500676687
15500683950
15500688589
15500693899
15500699697
15500705740
15500710745
15500717337
15500721975
15500729361
15500734365
15500738943
15500745291
15500750296
15500757131
15500762503
15500768423
15500774038
15500779775
15500785635
15500794180
15500800100
15500805654
15500810110
15500815664
15500822134
15500828603
15500835073
15500841177
15500847158
15500852407
15500857351
15500876211
15500882619
15500886159
15500893117
15500899892
15500904287
15500909109
15500914419
15500917715
15500925588
15500928945
15500938222
15500940175
15500949636
15500952993
15500960866
15500964223
15500971547
15500974843
15500983571
15500987111
15500994374
15500999685
15501005727
15501010915
15501015920
15501022634
15501028310
15501032582
15501038808
15501044667
15501050710
15501056325
15501061452
15501067311
15501070668
15501080190
15501083486
15501090993
15501096547
15501102284
15501107289
15501113393
15501118398
15501126881
15501131459
15501138295
15501143361
15501149770
15501156056
15501160939
15501166798
15501168690
15501177785
15501184376
15501189076
15501194630
15501201405
15501204762
15501212514
15501217335
15501225148
15501230397
15501235280
15501241566
15501245900
15501252369
15501258412
15501262928
15501268605
15501274830
15501276722
15501285511
15501291493
15501295887
15501301136
15501307667
15501312550
15501320729
15501327870
15501333912
15501338734
15501344837
15501348255
15501355763
15501360218
15501372791
15501381519
15501392628
15501401783
15501410694
15501416248
15501428211
15501436695
15501443653
15501448780
15501461109
15501469227
15501476978
15501479542
15501491077
15501500538
15501509205
15501517933
15501524769
15501529651
15501541614
15501551075
15501557605
15501562671
15501574512
15501579761
15501591175
15501596241
15501607532
15501612598
15501622730
15501629871
15501640125
15501647815
15501656299
15501663562
15501671008
15501679920
15501686817
15501695606
15501705493
15501712451
15501721606
15501727954
15501737170
15501743579
15501753406
15501759875
15501764819
15501776660
15501785632
15501792041
15501799121
15501808764
15501816577
15501823718
15501832934
15501842273
15501849536
15501859057
15501866076
15501874682
15501881457
15501892627
15501899035
15501906909
15501915576
15501924182
15501933215
15501939807
15501948290
15501955920
15501964465
15501969775
15501980578
15501989489
15501996142
15502003222
15502011706
15502018969
15502029528
15502036791
15502044909
15502051257
15502061266
15502067797
15502075732
15502084521
15502091723
15502100390
15502109057
15502117724
15502126330
15502132677
15502141466
15502151110
15502156786
15502167528
15502172960
15502182909
15502190111
15502198717
15502208116
15502216234
15502223497
15502232164
15502239794
15502250719
15502257250
15502266039
15502274523
15502282762
15502291429
15502298387
15502307237
15502316881
15502325243
15502333421
15502340501
15502349229
15502357591
15502362779
15502372789
15502377916
15502390977
15502395921
15502406358
15502413499
15502421312
15502428758
15502438218
15502444383
15502454515
15502460984
15502470811
15502477220
15502486009
15502495225
15502503648
15502512132
15502519456
15502528550
15502536058
15502542588
15502549851
15502558885
15502566148
15502575364
15502582566
15502591111
15502597581
15502606919
15502613450
15502623093
15502630540
15502640366
15502646653
15502655320
15502663743
15502671921
15502679307
15502684189
15502695481
15502703599
15502712327
15502719651
15502728867
15502736008
15502747361
15502752610
15502762009
15502769150
15502777817
15502787400
15502795517
15502802597
15502809677
15502815415
15502820420
15502827133
15502832749
15502837448
15502845444
15502852524
15502854416
15502862900
15502866318
15502874497
15502878037
15502885300
15502890854
15502896591
15502899826
15502906296
15502910751
15502917526
15502924057
15502928940
15502933456
15502940231
15502946701
15502954086
15502959091
15502964889
15502970688
15502976730
15502981552
15502987839
15502992355
15503001388
15503005600
15503012131
15503018234
15503023605
15503027878
15503035141
15503041427
15503046798
15503053329
15503056930
15503064254
15503068222
15503074264
15503079635
15503087387
15503092208
15503097274
15503103561
15503109664
15503113998
15503120407
15503124801
15503132553
15503137618
15503143112
15503149154
15503154830
15503159713
15503166488
15503170822
15503174301
15503183334
15503187057
15503195846
15503202438
15503207259
15503212020
15503218429
15503225082
15503230148
15503236190
15503241256
15503245895
15503252120
15503256576
15503263045
15503269515
15503275374
15503279891
15503283370
15503291244
15503295028
15503303206
15503306808
15503314071
15503319503
15503326400
15503330001
15503337203
15503341964
15503348189
15503354781
15503359786
15503366500
15503371077
15503377547
15503382857
15503388594
15503393599
15503399276
15503403792
15503411238
15503414595
15503422591
15503426131
15503434310
15503437850
15503444930
15503449813
15503455916
15503461409
15503467085
15503473433
15503478011
15503483199
15503489058
15503495162
15503501082
15503507124
15503514265
15503520857
15503525740
15503531477
15503536665
15503542342
15503546675
15503554915
15503558577
15503566511
15503569929
15503577925
15503583479
15503588972
15503594221
15503600264
15503606184
15503612654
15503618941
15503623335
15503629194
15503634871
15503641096
15503646956
15503653425
15503658735
15503664106
15503669722
15503675215
15503681807
15503686201
15503689680
15503697615
15503701033
15503711103
15503714399
15503721907
15503725752
15503733076
15503738203
15503743879
15503748884
15503755232
15503761579
15503766279
15503771162
15503777632
15503784040
15503789167
15503795393
15503801984
15503807966
15503813276
15503817793
15503821149
15503828718
15503834577
15503840742
15503845075
15503852705
15503857648
15503863996
15503869184
15503875165
15503880781
15503886579
15503890912
15503898115
15503902570
15503908491
15503915082
15503920392
15503926252
15503931440
15503937543
15503942365
15503949018
15503956281
15503962384
15503967756
15503972577
15503978437
15503984906
15503990949
15503995343
15503998822
15504007550
15504012860
15504019513
15504024335
15504029889
15504034162
15504041974
15504049115
15504055219
15504059857
15504064984
15504069806
15504077374
15504081891
15504089581
15504094098
15504102704
15504107098
15504113019
15504117413
15504124860
15504131329
15504137494
15504144574
15504154156
15504159772
15504165631
15504170087
15504176251
15504182782
15504190899
15504197735
15504204083
15504209881
15504216656
15504222271
15504228314
15504234234
15504240399
15504248150
15504253460
15504258954
15504265362
15504270733
15504276532
15504283734
15504288861
15504296490
15504301617
15504309185
15504314984
15504322613
15504326702
15504333966
15504337139
15504343792
15504348370
15504354962
15504358624
15504367047
15504371868
15504380352
15504383953
15504391461
15504397320
15504402508
15504407818
15504412640
15504418316
15504426128
15504432903
15504438518
15504444073
15504450725
15504456036
15504462688
15504468670
15504474529
15504481670
15504486919
15504491436
15504496929
15504503216
15504508159
15504514141
15504520305
15504526409
15504532512
15504537151
15504544353
15504551494
15504556438
15504563030
15504565105
15504575054
15504578716
15504587688
15504591106
15504597820
15504602764
15504609661
15504615154
15504622234
15504627666
15504634258
15504639141
15504645732
15504650859
15504656841
15504661296
15504668437
15504673686
15504680522
15504685344
15504691448
15504697490
15504702068
15504708354
15504714519
15504722148
15504729350
15504734050
15504739848
15504745647
15504751018
15504758159
15504761943
15504769816
15504773784
15504781413
15504785441
15504792216
15504797099
15504804057
15504809733
15504818339
15504823771
15504829753
15504834697
15504841166
15504846476
15504854045
15504859477
15504864116
15504870890
15504876872
15504881572
15504887553
15504894450
15504896708
15504904582
15504908549
15504918132
15504922160
15504930216
15504934062
15504940714
15504946330
15504952128
15504957560
15504963969
15504968607
15504975016
15504979960
15504987101
15504992533
15504998270
15505004374
15505006632
15505016093
15505020121
15505028910
15505032694
15505039347
15505045451
15505051554
15505056742
15505062662
15505069803
15505075175
15505079935
15505086588
15505091227
15505097025
15505103373
15505109842
15505116129
15505118509
15505127054
15505132853
15505138895
15505142313
15505149027
15505156656
15505164347
15505170816
15505177530
15505182291
15505188761
15505193827
15505199686
15505201578
15505210855
15505216349
15505222574
15505225931
15505233072
15505239237
15505245706
15505249307
15505256754
15505262064
15505268350
15505273721
15505279520
15505285806
15505290140
15505296426
15505302347
15505308817
15505314493
15505318887
15505325296
15505331888
15505336404
15505342264
15505347391
15505353738
15505362283
15505367532
15505374429
15505379800
15505385538
15505390481
15505398233
15505406717
15505412027
15505418069
15505424478
15505428262
15505435952
15505442544
15505449868
15505456399
15505462808
15505464883
15505474405
15505478433
15505485635
15505491555
15505498269
15505500711
15505509378
15505513040
15505520913
15505524453
15505531411
15505536721
15505545388
15505549355
15505557778
15505564309
15505570657
15505577248
15505584084
15505590676
15505595742
15505602273
15505608315
15505615090
15505620827
15505626870
15505633950
15505640359
15505647500
15505653298
15505660073
15505665383
15505672768
15505678261
15505686074
15505693276
15505700905
15505705971
15505712807
15505719216
15505724343
15505731545
15505737038
15505745583
15505752358
15505758889
15505763832
15505770607
15505778237
15505783791
15505790322
15505796547
15505804421
15505810463
15505816567
15505823036
15505827553
15505835976
15505842079
15505851235
15505858559
15505865639
15505870033
15505877174
15505881874
15505888832
15505893349
15505900307
15505905190
15505911049
15505916786
15505922157
15505927772
15505933449
15505937965
15505945656
15505950294
15505957313
15505963600
15505968666
15505973121
15505980873
15505986244
15505993019
15505998756
15506004616
15506010353
15506015114
15506019752
15506027809
15506033729
15506041603
15506046486
15506053871
15506060035
15506064430
15506069252
15506076027
15506081947
15506089881
15506093483
15506099769
15506103004
15506110389
15506116249
15506120704
15506125648
15506132972
15506139564
15506144996
15506150550
15506155921
15506161170
15506167823
15506176246
15506180885
15506187965
15506192481
15506199439
15506204627
15506211280
15506215980
15506222877
15506228980
15506235633
15506240394
15506246192
15506252174
15506258155
15506263953
15506269385
15506275367
15506280799
15506287147
15506293433
15506298072
15506304603
15506310523
15506316138
15506322425
15506328223
15506334388
15506340918
15506345374
15506351966
15506356360
15506363990
15506368995
15506376136
15506382361
15506388831
15506394812
15506400611
15506405616
15506412879
15506419165
15506424414
15506430274
15506436255
15506440772
15506446631
15506452612
15506458838
15506465674
15506472083
15506476721
15506483191
15506489111
15506493689
15506499609
15506506079
15506512183
15506517737
15506524634
15506530737
15506536658
15506541113
15506546850
15506550268
15506559057
15506565466
15506572180
15506576941
15506582800
15506586157
15506594885
15506598242
15506606421
15506614111
15506619543
15506627417
15506633398
15506635595
15506644445
15506648474
15506658117
15506664892
15506671179
15506676062
15506685827
15506691992
15506698095
15506706030
15506710607
15506716711
15506722692
15506728308
15506734533
15506740576
15506745214
15506752172
15506758581
15506764684
15506769262
15506775121
15506781225
15506786596
15506792516
15506798742
15506805517
15506810888
15506816808
15506822301
15506828405
15506835058
15506842199
15506848730
15506855443
15506860387
15506866979
15506872289
15506876928
15506883459
15506889928
15506896520
15506901525
15506907506
15506911962
15506918004
15506922643
15506929296
15506935277
15506941198
15506947789
15506952611
15506958532
15506963842
15506969823
15506976598
15506983068
15506989904
15506994786
15507001378
15507005956
15507013158
15507019139
15507024755
15507030675
15507037755
15507042027
15507047887
15507053807
15507058934
15507065221
15507070897
15507076939
15507083409
15507088109
15507094457
15507100377
15507105870
15507111729
15507117284
15507121678
15507126683
15507135289
15507141698
15507147618
15507151890
15507157689
15507162633
15507170079
15507178746
15507185277
15507191075
15507195530
15507201756
15507208043
15507214451
15507219761
15507227147
15507234227
15507238255
15507246373
15507252720
15507260838
15507265293
15507271458
15507278782
15507283421
15507290867
15507295506
15507301792
15507307713
15507313389
15507318028
15507324619
15507330662
15507336765
15507342564
15507347691
15507353672
15507358555
15507364719
15507371494
15507378452
15507383823
15507389988
15507396214
15507400852
15507407261
15507413059
15507419285
15507425571
15507430637
15507436375
15507442051
15507448093
15507453709
15507459385
15507463535
15507472996
15507478061
15507484043
15507489109
15507495517
15507503269
15507509372
15507515232
15507521457
15507527866
15507534763
15507541965
15507547580
15507554721
15507560825
15507568393
15507574741
15507580905
15507586826
15507593906
15507599338
15507605503
15507610507
15507618198
15507625766
15507631992
15507637485
15507643283
15507648105
15507655673
15507660190
15507667697
15507674472
15507679904
15507684543
15507691257
15507697177
15507703342
15507707736
15507716464
15507721103
15507728549
15507733249
15507739719
15507744662
15507750827
15507756686
15507762424
15507768588
15507775607
15507780124
15507788608
15507791903
15507798495
15507803256
15507811496
15507817111
15507822970
15507830539
15507838473
15507844027
15507850375
15507855563
15507863742
15507867526
15507875399
15507881991
15507886325
15507893344
15507898776
15507903781
15507911837
15507916964
15507923251
15507928439
15507933993
15507940402
15507946627
15507952364
15507958163
15507965182
15507971529
15507976107
15507982577
15507987826
15507993502
15507999606
15508007235
15508013522
15508019015
15508024203
15508030917
15508036166
15508042635
15508047701
15508055697
15508062044
15508068026
15508071993
15508080233
15508085238
15508092135
15508095675
15508103731
15508109408
15508115816
15508120821
15508127535
15508132540
15508138277
15508143221
15508153658
15508159761
15508166841
15508173860
15508178377
15508183870
15508190401
15508196321
15508204256
15508208223
15508215608
15508220369
15508226106
15508231355
15508238191
15508243623
15508251558
15508256807
15508262788
15508267732
15508274141
15508279146
15508285799
15508289583
15508297273
15508302644
15508308748
15508313875
15508320711
15508325716
15508331819
15508336641
15508345369
15508349153
15508357210
15508360811
15508367708
15508372529
15508379365
15508385774
15508393831
15508399263
15508405977
15508411226
15508418245
15508421846
15508429475
15508434968
15508445283
15508449311
15508456941
15508462617
15508468476
15508471955
15508478791
15508484040
15508491853
15508495820
15508503511
15508509248
15508514192
15508519197
15508525727
15508531587
15508540437
15508544404
15508551972
15508555634
15508562226
15508567109
15508573151
15508578156
15508587739
15508591401
15508597993
15508603059
15508609895
15508615693
15508620209
15508625214
15508632722
15508638215
15508645234
15508648713
15508655793
15508660981
15508667023
15508672028
15508680390
15508685883
15508692780
15508697785
15508703949
15508708893
15508715058
15508719941
15508726777
15508733002
15508738129
15508744538
15508749176
15508755890
15508761322
15508767792
15508773407
15508780121
15508785431
15508792023
15508796540
15508802338
15508808808
15508813446
15508819123
15508825104
15508830902
15508837677
15508843475
15508848419
15508854035
15508859772
15508865570
15508871246
15508875824
15508881744
15508887970
15508894073
15508898407
15508904510
15508910858
15508917023
15508922577
15508927032
15508931915
15508938690
15508944610
15508950470
15508954010
15508960785
15508966583
15508972748
15508977020
15508984466
15508991729
15508999847
15509003265
15509012359
15509018890
15509023590
15509029205
15509035736
15509040985
15509048126
15509053070
15509058990
15509063873
15509069854
15509075836
15509083099
15509087982
15509093780
15509098846
15509106292
15509111785
15509117706
15509122161
15509128387
15509132781
15509139617
15509144073
15509150482
15509157073
15509162750
15509167327
15509173248
15509179229
15509185088
15509191741
15509198150
15509202911
15509209624
15509215545
15509221282
15509227019
15509232696
15509238616
15509244170
15509250579
15509256560
15509261138
15509266875
15509272674
15509278899
15509283416
15509289153
15509297454
15509301421
15509309356
15509314177
15509320098
15509326445
15509330962
15509335967
15509344634
15509351714
15509356292
15509362090
15509367949
15509371672
15509380034
15509387419
15509394011
15509400298
15509405120
15509411467
15509417388
15509423430
15509428069
15509433501
15509441741
15509448210
15509453948
15509458586
15509464690
15509470610
15509476714
15509483000
15509488615
15509494719
15509499052
15509506194
15509510405
15509516997
15509521147
15509527495
15509533659
15509540373
15509543730
15509550200
15509555937
15509562773
15509566618
15509575346
15509582487
15509587065
15509593168
15509599028
15509602507
15509609831
15509613371
15509625090
15509630278
15509636442
15509640104
15509647551
15509650969
15509658354
15509661894
15509673246
15509677092
15509685087
15509688566
15509696379
15509703214
15509707670
15509715177
15509721708
15509726774
15509732633
15509739103
15509743803
15509750028
15509756010
15509759550
15509769437
15509773100
15509780485
15509786955
15509792509
15509797941
15509804227
15509809171
15509816801
15509820829
15509828397
15509831876
15509839750
15509843168
15509850492
15509856779
15509863675
15509867521
15509875455
15509881376
15509887418
15509891141
15509897794
15509902677
15509910795
15509914823
15509922635
15509926114
15509933316
15509936734
15509944303
15509949430
15509957791
15509961515
15509970121
15509973477
15509981412
15509986356
15509992948
15509998197
15510007169
15510010953
15510017545
15510022672
15510030484
15510034085
15510041531
15510045072
15510052518
15510058011
15510063931
15510068753
15510075650
15510080655
15510086392
15510091336
15510099759
15510106290
15510110379
15510115994
15510121487
15510127957
15510132718
15510139432
15510146451
15510152615
15510158414
15510165005
15510169888
15510176907
15510181729
15510189297
15510193142
15510201321
15510205166
15510213345
15510218472
15510224881
15510230008
15510237942
15510241787
15510249478
15510253689
15510262905
15510269253
15510274014
15510279141
15510289212
15510294155
15510299954
15510305569
15510311672
15510314968
15510322170
15510325649
15510335842
15510341457
15510345974
15510350979
15510358486
15510362148
15510369595
15510376186
15510382656
15510386684
15510393826
15510399746
15510405727
15510409267
15510417507
15510420986
15510429348
15510433071
15510440334
15510446133
15510452480
15510456081
15510463039
15510467861
15510474575
15510480007
15510486355
15510491298
15510497951
15510501857
15510509304
15510514370
15510521938
15510527309
15510534633
15510538295
15510545681
15510550930
15510557643
15510562648
15510570583
15510574489
15510581813
15510586940
15510592739
15510597621
15510604701
15510609645
15510617763
15510623256
15510628932
15510633876
15510639552
15510646266
15510652065
15510656581
15510664394
15510671352
15510677211
15510682277
15510688380
15510692958
15510699367
15510703944
15510710902
15510717555
15510724147
15510729152
15510735011
15510739955
15510746791
15510752284
15510760707
15510767482
15510772609
15510778773
15510783351
15510789271
15510795192
15510802394
15510808497
15510815883
15510823085
15510827845
15510834803
15510839381
15510846583
15510851100
15510859950
15510866908
15510872645
15510877650
15510883326
15510889857
15510894313
15510900721
15510906764
15510913722
15510919337
15510925562
15510931300
15510936366
15510942042
15510948573
15510955286
15510959986
15510966578
15510973048
15510978846
15510983363
15510991907
15510997034
15511005152
15511010401
15511015772
15511020472
15511027308
15511034632
15511040491
15511045435
15511052881
15511057398
15511062769
15511069666
15511074854
15511081141
15511086817
15511094324
15511099939
15511106226
15511111353
15511118372
15511125147
15511131006
15511137293
15511141932
15511148767
15511153467
15511160669
15511166162
15511169886
15511179956
15511183802
15511191187
15511194910
15511202295
15511207971
15511213953
15511217615
15511225000
15511228723
15511237268
15511241174
15511248010
15511253992
15511259912
15511263940
15511270959
15511277185
15511281824
15511289209
15511295618
15511301355
15511306177
15511312707
15511319177
15511324304
15511329675
15511335412
15511340722
15511347742
15511353540
15511361719
15511365869
15511372339
15511378259
15511385095
15511390893
15511396570
15511403955
15511408838
15511414514
15511421228
15511426049
15511432153
15511439538
15511446984
15511452844
15511459741
15511465356
15511471826
15511478112
15511485192
15511490319
15511497643
15511502404
15511507653
15511513818
15511518945
15511525720
15511532006
15511536828
15511542931
15511547814
15511553735
15511559777
15511565514
15511571374
15511579552
15511585534
15511592431
15511597802
15511603844
15511610619
15511615319
15511621667
15511626916
15511630761
15511641991
15511648217
15511653283
15511660485
15511667016
15511672936
15511678978
15511685631
