15443877760
15443882887
15443887709
15443893874
15443899306
15443905104
15443911635
15443918349
15443924330
15443931349
15443937025
15443943556
15443947768
15443954176
15443959486
15443965895
15443973585
15443980543
15443987684
15443993544
15444000197
15444007582
15444014296
15444020155
15444027296
15444033156
15444040175
15444045729
15444050489
15444057814
15444064039
15444070509
15444076307
15444081495
15444089674
15444096571
15444102064
15444108961
15444116835
15444123731
15444129347
15444137647
15444145765
15444154066
15444167066
15444172865
15444179517
15444184889
15444190565
15444196912
15444200880
15444207594
15444215040
15444222303
15444228712
15444234144
15444240186
15444247449
15444253736
15444260206
15444266248
15444273694
15444279554
15444285169
15444290601
15444296461
15444303235
15444306898
15444315748
15444321485
15444327527
15444334607
15444340284
15444346998
15444353101
15444357129
15444364454
15444370435
15444376844
15444384229
15444389722
15444394971
15444401075
15444406568
15444414014
15444421521
15444428784
15444437451
15444443555
15444450757
15444457410
15444464551
15444471204
15444478589
15444484937
15444491101
15444498547
15444505139
15444511182
15444519238
15444526868
15444533948
15444540234
15444550976
15444556287
15444563061
15444569958
15444575574
15444581250
15444586926
15444595471
15444601330
15444608471
15444613782
15444621411
15444627697
15444637036
15444642163
15444650219
15444656872
15444663037
15444668042
15444675305
15444681774
15444692089
15444701550
15444709851
15444715893
15444725781
15444732678
15444737927
15444746044
15444753491
15444760082
15444766247
15444773144
15444779186
15444786144
15444792187
15444799755
15444804455
15444812695
15444816784
15444825207
15444829296
15444839001
15444847240
15444853466
15444859142
15444866222
15444872570
15444879284
15444884289
15444890697
15444896618
15444903576
15444910534
15444917858
15444924083
15444929332
15444936901
15444942455
15444949230
15444955211
15444964061
15444972667
15444978038
15444987865
15444993541
15445000316
15445007457
15445014781
15445020336
15445027294
15445034496
15445043041
15445051036
15445055492
15445064342
15445068614
15445077403
15445085094
15445090892
15445097972
15445103099
15445110606
15445117320
15445121410
15445129649
15445133861
15445142039
15445145946
15445153270
15445161998
15445169566
15445175426
15445182750
15445188060
15445197642
15445202281
15445210643
15445218760
15445226939
15445232005
15445241526
15445247447
15445259105
15445263987
15445272837
15445281871
15445288096
15445293101
15445297374
15445300669
15445307933
15445311717
15445319285
15445323130
15445331126
15445339366
15445346995
15445353587
15445360484
15445364878
15445368845
15445373240
15445377635
15445383372
15445387766
15445392283
15445398325
15445403635
15445407237
15445412058
15445416270
15445421214
15445425547
15445431467
15445436655
15445442332
15445446604
15445451426
15445456309
15445461008
15445465159
15445470164
15445474375
15445479258
15445483408
15445489145
15445494150
15445498606
15445504648
15445508555
15445515635
15445520334
15445526011
15445529795
15445532663
15445538889
15445541636
15445547373
15445555368
15445562204
15445567087
15445571787
15445576120
15445581980
15445586801
15445592112
15445598520
15445603830
15445609995
15445615915
15445619699
15445624887
15445629099
15445635996
15445640756
15445645395
15445651193
15445655893
15445659921
15445664865
15445666513
15445675119
15445681284
15445686533
15445690805
15445694894
15445700143
15445706613
15445711435
15445715829
15445723459
15445727914
15445732919
15445737863
15445741464
15445749155
15445752695
15445758859
15445764963
15445770395
15445773813
15445780343
15445785287
15445790658
15445794870
15445801706
15445807443
15445815072
15445820932
15445825753
15445829843
15445835519
15445842660
15445849130
15445856637
15445862802
15445869455
15445874337
15445880502
15445884469
15445892709
15445896676
15445903207
15445908578
15445914071
15445919686
15445923776
15445927011
15445934579
15445938790
15445947579
15445950997
15445958322
15445963082
15445970834
15445975839
15445981088
15445986520
15445994271
15446000192
15446008126
15446012643
15446018746
15446024361
15446030587
15446035287
15446042794
15446047494
15446055306
15446060921
15446064522
15446072884
15446076607
15446083504
15446088326
15446095833
15446101082
15446107430
15446112252
15446117318
15446123909
15446129097
15446133736
15446139657
15446145638
15446151131
15446155526
15446158944
15446166634
15446170418
15446179207
15446182808
15446191414
15446194588
15446201302
15446206124
15446211800
15446218025
15446223641
15446228584
15446233650
15446238106
15446244881
15446250862
15446255928
15446260384
15446263741
15446272102
15446276253
15446284126
15446287666
15446294197
15446299690
15446305244
15446310432
15446317024
15446321663
15446327156
15446332832
15446339119
15446343513
15446349617
15446353889
15446360420
15446365059
15446369758
15446380256
15446385261
15446395454
15446402717
15446410835
15446417793
15446424812
15446433784
15446441536
15446448982
15446464302
15446470161
15446480049
15446485847
15446497749
15446506599
15446514595
15446521308
15446529609
15446538886
15446546333
15446552375
15446560371
15446568977
15446576911
15446585517
15446588325
15446599799
15446604804
15446613959
15446621589
15446631538
15446636665
15446645698
15446653449
15446662787
15446668952
15446677924
15446684577
15446693610
15446699836
15446709113
15446715583
15446724677
15446731208
15446736152
15446747138
15446754706
15446763129
15446770331
15446778144
15446784613
15446793097
15446799872
15446808722
15446816962
15446826300
15446833930
15446844122
15446852606
15446859015
15446866461
15446875861
15446883002
15446889716
15446896246
15446904791
15446916754
15446922980
15446932989
15446938727
15446945380
15446952948
15446961615
15446968085
15446972540
15446982733
15446987311
15446996771
15447004583
15447012640
15447017401
15447027472
15447031805
15447041449
15447047857
15447055670
15447061956
15447069403
15447075933
15447085028
15447091803
15447100347
15447107305
15447114935
15447121221
15447131231
15447137823
15447148504
15447155340
15447163519
15447169866
15447178167
15447186956
15447191778
15447201666
15447206609
15447216375
15447223333
15447231634
15447237859
15447246404
15447255620
15447263677
15447273748
15447282842
15447297185
15447304876
15447313360
15447318120
15447326970
15447331731
15447341558
15447349920
15447355169
15447361760
15447369756
15447376592
15447384832
15447392827
15447402227
15447407170
15447416509
15447423039
15447428777
15447437139
15447443974
15447451055
15447459111
15447466252
15447474187
15447480290
15447487309
15447496465
15447503972
15447511479
15447519231
15447527287
15447535588
15447544072
15447551335
15447557561
15447562504
15447573491
15447579350
15447589665
15447594609
15447602665
15447610234
15447618657
15447625187
15447632695
15447639714
15447648686
15447654911
15447663395
15447671879
15447679447
15447685307
15447691105
15447703739
15447714482
15447721134
15447725834
15447737126
15447740971
15447748722
15447753849
15447759281
15447764530
15447770145
15447776554
15447781315
15447785770
15447792423
15447796879
15447802311
15447809147
15447815556
15447819767
15447823246
15447830753
15447834598
15447843876
15447847172
15447853580
15447859012
15447865665
15447870121
15447876652
15447881046
15447887150
15447893314
15447895206
15447904178
15447909488
15447915104
15447919193
15447925968
15447929691
15447937015
15447942447
15447946659
15447952396
15447959781
15447965580
15447971927
15447976688
15447982608
15447991703
15448000064
15448004886
15448013065
15448016422
15448023807
15448027225
15448034305
15448039432
15448045841
15448051517
15448057864
15448062564
15448067996
15448072696
15448079593
15448083926
15448090457
15448094791
15448101688
15448106448
15448112674
15448117252
15448122928
15448129153
15448135196
15448139651
15448145389
15448151919
15448156802
15448161502
15448168216
15448173404
15448177676
15448184939
15448189639
15448196170
15448202273
15448206729
15448212588
15448218142
15448223025
15448227908
15448234561
15448240237
15448244510
15448249392
15448255740
15448261233
15448266299
15448272464
15448276492
15448283267
15448290164
15448295169
15448302859
15448309878
15448314883
15448320986
15448326357
15448330935
15448338625
15448344851
15448350527
15448356204
15448360049
15448365969
15448370852
15448377139
15448383303
15448389040
15448393740
15448399538
15448403872
15448411379
15448415835
15448421694
15448426211
15448434939
15448440249
15448447085
15448451967
15448458864
15448464236
15448469179
15448474611
15448482302
15448486696
15448491884
15448498232
15448503176
15448508974
15448512392
15448520022
15448526247
15448530703
15448535891
15448542849
15448547670
15448553286
15448559145
15448564943
15448570497
15448580507
15448588137
15448593752
15448600893
15448604860
15448610781
15448615114
15448618532
15448626772
15448629885
15448636781
15448641298
15448647402
15448650942
15448657900
15448663881
15448669618
15448674257
15448679811
15448685670
15448690370
15448696107
15448700563
15448705385
15448711793
15448716249
15448723207
15448727785
15448734010
15448739686
15448744752
15448751161
15448757448
15448761781
15448767579
15448774110
15448777650
15448785158
15448790040
15448794801
15448801759
15448807130
15448812257
15448818544
15448823182
15448829103
15448833436
15448839723
15448846009
15448851686
15448857850
15448864564
15448870668
15448872560
15448881898
15448890199
15448893983
15448902467
15448905763
15448913148
15448917848
15448926393
15448933289
15448942445
15448950990
15448960999
15448968446
15448977296
15448983582
15448992616
15448999085
15449006959
15449015259
15449023804
15449032044
15449040528
15449047242
15449052064
15449063843
15449068787
15449079346
15449087281
15449096436
15449103394
15449113221
15449118653
15449127747
15449136536
15449143616
15449150208
15449159363
15449168640
15449174805
15449183045
15449191101
15449197632
15449206909
15449213196
15449222229
15449228211
15449235474
15449244690
15449253235
15449262512
15449270325
15449281555
15449289490
15449297302
15449304077
15449311706
15449317627
15449326172
15449331970
15449340271
15449348511
15449356384
15449362549
15449370300
15449378296
15449386108
15449392395
15449400879
15449408569
15449414978
15449422546
15449429626
15449437255
15449444641
15449452697
15449457336
15449466369
15449474243
15449484802
15449489135
15449498413
15449504882
15449512817
15449519287
15449528625
15449536743
15449544433
15449549255
15449560180
15449565185
15449573730
15449580077
15449588744
15449596191
15449604491
15449611266
15449618957
15449625304
15449632751
15449640868
15449647033
15449655761
15449663573
15449672301
15449679748
15449686339
15449693358
15449702086
15449709594
15449715392
15449723754
15449729491
15449737487
15449745360
15449753356
15449761290
15449766783
15449777159
15449783690
15449791930
15449794799
15449807250
15449812010
15449822875
15449827941
15449837340
15449844542
15449853758
15449861388
15449869444
15449875792
15449883727
15449892577
15449899840
15449908324
15449917967
15449926268
15449933287
15449940184
15449949522
15449955870
15449963865
15449972777
15449977904
15449988707
15449996214
15450003416
15450012388
15450019712
15450026793
15450036131
15450045408
15450054380
15450061094
15450066709
15450079466
15450088438
15450096372
15450104002
15450109800
15450117246
15450124815
15450132871
15450138975
15450145384
15450155149
15450160093
15450169248
15450176389
15450183408
15450189939
15450199583
15450205991
15450213071
15450221067
15450228635
15450236265
15450243772
15450250181
15450259153
15450267820
15450276792
15450283140
15450291929
15450298520
15450305722
15450310178
15450316648
15450321958
15450326902
15450333066
15450337949
15450344419
15450350400
15450355771
15450360105
15450366574
15450371213
15450377683
15450383298
15450388791
15450395322
15450401425
15450406857
15450411862
15450417966
15450421384
15450428647
15450432370
15450440732
15450448117
15450455136
15450458615
15450465329
15450469785
15450476132
15450480588
15450486142
15450491574
15450497678
15450502316
15450508969
15450513791
15450518979
15450523984
15450530148
15450534726
15450543820
15450549435
15450555173
15450561398
15450566525
15450572323
15450575863
15450583310
15450589840
15450594723
15450598019
15450607419
15450612912
15450617733
15450623043
15450629452
15450635189
15450641171
15450645748
15450652218
15450656613
15450662655
15450669064
15450673275
15450679379
15450685543
15450691281
15450696713
15450701657
15450708431
15450715145
15450719052
15450726986
15450731442
15450740109
15450745174
15450751400
15450755795
15450761105
15450766659
15450772335
15450777706
15450784237
15450790585
15450796200
15450800472
15450805965
15450811947
15450817318
15450822933
15450826778
15450833858
15450840023
15450844845
15450849605
15450855465
15450860592
15450867244
15450872555
15450877193
15450883846
15450890133
15450895443
15450901912
15450906246
15450911861
15450918941
15450924495
15450928951
15450934749
15450940975
15450946102
15450951900
15450956966
15450961788
15450966365
15450974361
15450977901
15450986507
15450990291
15450997188
15451002498
15451007808
15451014400
15451019466
15451023921
15451031307
15451036617
15451043636
15451048030
15451053340
15451059383
15451066280
15451071223
15451077815
15451082454
15451085872
15451094722
15451098262
15451105525
15451111446
15451121150
15451125789
15451132564
15451136897
15451144710
15451149531
15451155330
15451160701
15451167903
15451173213
15451177852
15451183650
15451188716
15451194819
15451200251
15451205256
15451210505
15451219233
15451223445
15451229304
15451235225
15451239619
15451244502
15451250666
15451256282
15451261531
15451265864
15451272700
15451277461
15451283564
15451287898
15451293940
15451301203
15451312007
15451315486
15451323420
15451328364
15451335078
15451340327
15451346858
15451351923
15451357356
15451363093
15451368159
15451372919
15451378901
15451384699
15451390070
15451395075
15451402521
15451406428
15451411982
15451417292
15451422175
15451427485
15451432368
15451440668
15451446528
15451452631
15451455195
15451463251
15451468928
15451475275
15451481440
15451485773
15451494135
15451501947
15451510187
15451516596
15451524714
15451532282
15451538202
15451545893
15451554132
15451561640
15451566217
15451575434
15451580255
15451590814
15451595514
15451604730
15451611322
15451620966
15451625482
15451633539
15451639826
15451648492
15451655389
15451666010
15451674127
15451682794
15451689264
15451696954
15451702386
15451711481
15451717767
15451724908
15451731073
15451739679
15451745538
15451755731
15451762689
15451769830
15451778192
15451786187
15451795160
15451804193
15451810907
15451819696
15451826043
15451832940
15451842767
15451847772
15451857782
15451865899
15451874932
15451882134
15451890862
15451897820
15451905389
15451912103
15451921624
15451930047
15451938897
15451945245
15451952264
15451961175
15451969415
15451975762
15451980584
15451992608
15451997979
15452008538
15452016167
15452024834
15452032464
15452041558
15452048577
15452059136
15452066033
15452077324
15452084588
15452093377
15452101616
15452108941
15452117241
15452124688
15452133294
15452138543
15452148674
15452153618
15452163811
15452170769
15452179741
15452187004
15452193413
15452201714
15452209709
15452216423
15452226006
15452234245
15452241264
15452249870
15452252617
15452264641
15452273125
15452281364
15452286491
15452295952
15452302910
15452310844
15452320000
15452326897
15452337150
15452343986
15452353264
15452360222
15452369011
15452376579
15452385002
15452393181
15452399772
15452404838
15452415641
15452420524
15452431816
15452439018
15452447990
15452455009
15452463371
15452470878
15452480888
15452487785
15452496635
15452504264
15452513725
15452520072
15452528312
15452536674
15452545402
15452552116
15452560539
15452566886
15452571769
15452583488
15452591422
15452599113
15452606254
15452615104
15452622550
15452632010
15452639030
15452646476
15452652823
15452661368
15452670340
15452679557
15452685904
15452693045
15452701468
15452710074
15452716727
15452723868
15452733573
15452739371
15452749930
15452756888
15452765311
15452772574
15452780753
15452786917
15452795889
15452804923
15452813284
15452819632
15452828238
15452835013
15452843497
15452851798
15452856863
15452867117
15452880362
15452887259
15452896353
15452903311
15452905386
15452914603
15452918082
15452927054
15452932425
15452936880
15452940115
15452948233
15452951773
15452959524
15452964590
15452969717
15452975943
15452981192
15452987845
15452991934
15452997793
15453002920
15453009268
15453014883
15453020620
15453025747
15453031485
15453036795
15453043447
15453046743
15453054068
15453057608
15453064810
15453069692
15453075369
15453080862
15453086965
15453092031
15453098318
15453103262
15453110037
15453114431
15453121511
15453127248
15453132925
15453137685
15453143362
15453149221
15453152822
15453161489
15453164968
15453172720
15453179555
15453185171
15453191396
15453195791
15453202322
15453207326
15453214284
15453220022
15453225637
15453227529
15453236745
15453241445
15453247243
15453250722
15453258352
15453261648
15453269338
15453274282
15453280385
15453285085
15453291372
15453296071
15453302480
15453306936
15453312612
15453318288
15453323781
15453330129
15453335195
15453339894
15453345510
15453351918
15453355397
15453362355
15453367299
15453374074
15453377919
15453385243
15453390126
15453395802
15453400319
15453406484
15453410817
15453417531
15453422597
15453429006
15453433583
15453439015
15453445546
15453451039
15453456776
15453460255
15453467702
15453473500
15453480214
15453487172
15453492116
15453500661
15453507008
15453514638
15453520680
15453525136
15453530751
15453536488
15453541554
15453547780
15453553639
15453559498
15453563344
15453571034
15453574574
15453582020
15453585682
15453592579
15453597828
15453602833
15453607472
15453614674
15453619130
15453624623
15453630482
15453635487
15453642506
15453647084
15453652760
15453656300
15453663624
15453670704
15453676502
15453683583
15453691822
15453699513
15453709034
15453714283
15453719227
15453729115
15453734058
15453738575
15453744923
15453751148
15453759022
15453766224
15453771961
15453778919
15453783863
15453789051
15453794849
15453799427
15453806141
15453811451
15453814808
15453822193
15453828663
15453834034
15453839222
15453847461
15453858021
15453864673
15453871204
15453881214
15453885730
15453894642
15453899830
15453904102
15453910328
15453916492
15453921192
15453928089
15453931324
15453937854
15453942371
15453947864
15453952808
15453958484
15453964954
15453970813
15453975208
15453980701
15453984729
15453990039
15453996265
15454000354
15454006702
15454011768
15454016956
15454022937
15454027454
15454033069
15454038623
15454042835
15454048145
15454053210
15454059009
15454062305
15454069568
15454072742
15454079883
15454087756
15454092822
15454097644
15454105334
15454112475
15454120288
15454127185
15454135669
15454142261
15454150195
15454156177
15454165393
15454169604
15454177905
15454183764
15454192126
15454199328
15454206897
15454211291
15454220996
15454227648
15454235705
15454242053
15454251147
15454258410
15454267626
15454274523
15454281115
15454287524
15454295336
15454303271
15454309618
15454318163
15454324999
15454333239
15454339343
15454347399
15454353075
15454361132
15454368639
15454375964
15454396776
15454404650
15454409228
15454418688
15454427294
15454434191
15454442980
15454451769
15454456652
15454467760
15454475634
15454481981
15454491442
15454500048
15454508226
15454517382
15454524828
15454533556
15454541368
15454548693
15454554735
15454561876
15454571092
15454579698
15454586229
15454595140
15454604173
15454610643
15454619554
15454626695
15454634081
15454642686
15454650316
15454658922
15454666124
15454675462
15454682481
15454691209
15454700975
15454709642
15454714891
15454725328
15454730333
15454741807
15454746751
15454757432
15454762559
15454773240
15454780320
15454789232
15454796251
15454803697
15454812974
15454819871
15454829148
15454837022
15454843797
15454851243
15454860887
15454869493
15454878343
15454881700
15454896043
15454905503
15454914597
15454923386
15454929856
15454938828
15454945115
15454954209
15454960557
15454971055
15454979539
15454984727
15454994553
15455002793
15455011277
15455016343
15455025010
15455032334
15455040574
15455050034
15455056687
15455065781
15455073655
15455080002
15455087998
15455097214
15455106430
15455115769
15455122727
15455131333
15455139817
15455146164
15455154709
15455163376
15455171738
15455180588
15455186691
15455195175
15455200180
15455212326
15455219467
15455227951
15455236740
15455243088
15455252426
15455258896
15455266098
15455276657
15455281906
15455292709
15455301864
15455308334
15455315597
15455326340
15455331894
15455343063
15455350204
15455357895
15455365097
15455374252
15455381332
15455391159
15455398300
15455406234
15455415634
15455422042
15455432174
15455439620
15455446029
15455456100
15455462631
15455471725
15455478134
15455487167
15455492050
15455498031
15455504073
15455509261
15455515365
15455519454
15455526046
15455532272
15455538497
15455545638
15455550155
15455556380
15455562545
15455567367
15455573836
15455580489
15455584884
15455593490
15455598067
15455603072
15455609481
15455614913
15455620223
15455625350
15455631637
15455637923
15455644637
15455650435
15455657088
15455662520
15455669356
15455674849
15455682113
15455687056
15455692244
15455698531
15455703902
15455708052
15455713912
15455720015
15455725264
15455730086
15455736067
15455742598
15455747786
15455752181
15455760054
15455767745
15455777144
15455788680
15455796919
15455803023
15455813399
15455820662
15455828291
15455835432
15455842268
15455853682
15455861067
15455867964
15455876204
15455884199
15455891890
15455899214
15455908430
15455918623
15455926497
15455932600
15455940291
15455947310
15455955855
15455963728
15455972395
15455980024
15455988142
15455995771
15456004438
15456011702
15456020430
15456029585
15456035993
15456044172
15456053144
15456060713
15456069929
15456077863
15456084821
15456093672
15456100691
15456108320
15456115644
15456125410
15456130048
15456142561
15456151899
15456160505
15456168195
15456174909
15456188032
15456196149
15456204816
15456212751
15456218976
15456229169
15456237775
15456245527
15456254926
15456263654
15456271894
15456279523
15456287214
15456295514
15456302900
15456311994
15456320966
15456331403
15456338117
15456346662
15456354535
15456362592
15456371198
15456379987
15456387250
15456396466
15456404523
15456411542
15456419904
15456427106
15456434918
15456442303
15456451459
15456458600
15456468243
15456476483
15456484723
15456491131
15456499432
15456506451
15456513470
15456521954
15456528973
15456536419
15456544110
15456551739
15456561749
15456571698
15456579205
15456586956
15456593975
15456601178
15456608441
15456616864
15456625042
15456633221
15456640789
15456648297
15456656353
15456663616
15456671734
15456679058
15456686321
15456693524
15456701885
15456710919
15456716961
15456726116
15456733807
15456745464
15456750347
15456761700
15456769207
15456778301
15456788128
15456794353
15456803387
15456809307
15456818279
15456826336
15456834514
15456840740
15456850811
15456859661
15456865825
15456874736
15456883159
15456891887
15456900066
15456906963
15456921306
15456931682
15456941204
15456949443
15456958782
15456968364
15456977702
15456986614
15456999309
15457007060
15457015056
15457026775
15457034587
15457045451
15457050944
15457061809
15457072734
15457082011
15457090800
15457098002
15457105021
15457110087
15457117351
15457123088
15457131694
15457138652
15457145244
15457151347
15457159892
15457167765
15457174785
15457181437
15457189006
15457195597
15457200541
15457205851
15457212321
15457218363
15457224467
15457228617
15457236674
15457240458
15457247965
15457254435
15457261576
15457267619
15457274577
15457282572
15457289286
15457295207
15457300883
15457307841
15457314433
15457321207
15457327860
15457333170
15457339945
15457345621
15457353678
15457360636
15457365763
15457374430
15457379374
15457385721
15457392802
15457398905
15457403849
15457411539
15457416971
15457423380
15457428995
15457435587
15457440958
15457448832
15457454569
15457462626
15457469034
15457477335
15457483927
15457493692
15457501993
15457510233
15457516581
15457525186
15457531046
15457539224
15457545267
15457550516
15457561624
15457567423
15457575784
15457584085
15457589823
15457596170
15457604349
15457611063
15457619486
15457625772
15457635355
15457641824
15457649271
15457655130
15457661905
15457671121
15457681497
15457689004
15457696695
15457700967
15457709512
15457715555
15457723916
15457731363
15457738809
15457746743
15457753152
15457758767
15457767007
15457772561
15457780008
15457788186
15457796182
15457801980
15457808877
15457816934
15457825296
15457833352
15457841226
15457847451
15457857766
15457863992
15457872964
15457878274
15457885720
15457893044
15457900185
15457906106
15457915994
15457923806
15457930581
15457938393
15457944375
15457951638
15457956216
15457965737
15457974892
15457980935
15457989113
15457994668
15458002297
15458007668
15458014016
15458023171
15458030068
15458038308
15458045998
15458053994
15458058815
15458068886
15458076943
15458082924
15458089699
15458098183
15458107399
15458113625
15458121987
15458129921
15458136391
15458144387
15458152687
15458159035
15458167458
15458174111
15458182594
15458191444
15458198952
15458207863
15458215736
15458221596
15458228249
15458235573
15458241493
15458248390
15458253151
15458259437
15458265907
15458271583
15458275368
15458282204
15458285377
15458291725
15458294838
15458301307
15458307838
15458313331
15458319374
15458330299
15458336464
15458350135
15458360267
15458366737
15458378395
15458384315
15458390663
15458396095
15458400611
15458406044
15458412391
15458419532
15458424781
15458429115
15458435279
15458440528
15458445106
15458449500
15458455726
15458462745
15458469337
15458473548
15458481788
15458486488
15458496986
15458501258
15458508704
15458514747
15458519569
15458526588
15458534888
15458540015
15458544288
15458550086
15458555030
15458559425
15458564368
15458568214
15458573768
15458577613
15458582191
15458586097
15458591285
15458596229
15458599891
15458603919
15458609412
15458614417
15458620337
15458626929
15458631446
15458637427
15458643287
15458649207
15458653418
15458658973
15458664588
15458670691
15458675025
15458681006
15458686011
15458692115
15458696631
15458702002
15458708167
15458712561
15458719641
15458726538
15458731787
15458738074
15458747107
15458756934
15458763098
15458768836
15458772437
15458777747
15458782263
15458786414
15458790808
15458795874
15458799475
15458805945
15458811438
15458816260
15458821448
15458825781
15458829993
15458835974
15458840430
15458846106
15458851904
15458856787
15458859839
15458867041
15458871496
15458876868
15458882361
15458888769
15458893591
15458898596
15458904272
15458908728
15458914038
15458920386
15458925635
15458932226
15458938391
15458943335
15458947363
15458953039
15458958349
15458963720
15458968420
15458973852
15458979223
15458983252
15458990576
15458995459
15459000830
15459004126
15459010534
15459014990
15459022009
15459025366
15459033483
15459039526
15459046301
15459053991
15459059973
15459063818
15459074011
15459079565
15459083776
15459087988
15459093298
15459099584
15459105199
15459110265
15459114538
15459120641
15459125463
15459130651
15459136205
15459141698
15459146154
15459151952
15459156042
15459162633
15459167394
15459172826
15459178808
15459183385
15459189672
15459195836
15459200231
15459205541
15459211217
15459216039
15459222570
15459226232
15459232518
15459237096
15459243993
15459249975
15459255712
15459261266
15459267186
15459272008
15459277562
15459282689
15459291600
15459296300
15459301000
15459307469
15459313634
15459318822
15459324559
15459327428
15459335729
15459339269
15459347508
15459354283
15459364293
15459370885
15459379735
15459386144
15459393895
15459400975
15459409642
15459416173
15459423375
15459429601
15459438329
15459444310
15459453099
15459458897
15459466893
15459475926
15459482762
15459491368
15459496495
15459508763
15459516331
15459525303
15459530430
15459539586
15459546727
15459555394
15459562840
15459571385
15459578099
15459587559
15459596592
15459603550
15459610142
15459619358
15459627659
15459635288
15459641880
15459651402
15459659947
15459668064
15459674351
15459681980
15459689915
15459699192
15459707066
15459715305
15459727634
15459735996
15459742954
15459750523
15459760593
15459767063
15459778721
15459786655
15459793979
15459803013
15459810886
15459818393
15459826694
15459833347
15459842563
15459849277
15459858982
15459865268
15459871372
15459880893
15459889682
15459896091
15459903415
15459913120
15459920505
15459929538
15459936923
15459944431
15459950778
15459959628
15459967990
15459977145
15459983859
15459992770
15459999179
15460004367
15460015720
15460020602
15460030917
15460038791
15460046542
15460054904
15460062533
15460067111
15460075717
15460082248
15460091586
15460098605
15460106540
15460113681
15460122287
15460128756
15460135836
15460142062
15460150241
15460158725
15460165377
15460174777
15460182406
15460191867
15460197360
15460207370
15460211947
15460222323
15460227023
15460236422
15460243868
15460253268
15460260409
15460268893
15460275973
15460283907
15460293490
15460300509
15460309542
15460317538
15460323702
15460332980
15460339571
15460347628
15460356478
15460364046
15460372835
15460378268
15460387911
15460393099
15460404207
15460411410
15460419283
15460426973
15460434969
15460444246
15460454256
15460461336
15460468416
15460474764
15460484346
15460493074
15460499788
15460508394
15460517610
15460524324
15460532808
15460541963
15460547457
15460557405
15460565645
15460575288
15460584261
15460591829
15460604402
15460612642
15460619173
15460627351
15460635896
15460642549
15460650056
15460660371
15460665620
15460676301
15460680879
15460689546
15460696077
15460703950
15460712617
15460718721
15460727449
15460734834
15460740999
15460748323
15460756135
15460764070
15460768892
15460775117
15460781282
15460786592
15460792573
15460797700
15460804048
15460807954
15460815827
15460821443
15460829865
15460835237
15460845796
15460853608
15460862641
15460871797
15460878327
15460883637
15460890107
15460895478
15460902985
15460909394
15460913972
15460918977
15460926362
15460934846
15460940827
15460946625
15460952668
15460958588
15460966096
15460971650
15460977753
15460982758
15460988618
15460993744
15460999543
15461005341
15461009919
15461015290
15461021698
15461027985
15461033539
15461040009
15461045685
15461051606
15461056488
15461062470
15461069123
15461077362
15461082672
15461089264
15461094330
15461099945
15461105011
15461110443
15461116059
15461122833
15461128144
15461133209
15461139313
15461143402
15461149811
15461154267
15461159088
15461166718
15461171967
15461178986
15461183258
15461189117
15461193817
15461199371
15461206512
15461212372
15461217560
15461224457
15461229279
15461236359
15461241608
15461249359
15461255157
15461261810
15461265228
15461271820
15461275299
15461281402
15461286712
15461291473
15461298248
15461303802
15461309234
15461313629
15461318939
15461324371
15461329925
15461334137
15461340973
15461347015
15461352935
15461357879
15461364044
15461370269
15461376678
15461381378
15461387420
15461393646
15461398529
15461404876
15461408172
15461415496
15461418914
15461426727
15461434295
15461438995
15461442962
15461451446
15461454925
15461461700
15461466705
15461474151
15461479888
15461486053
15461491302
15461496734
15461501373
15461506499
15461512420
15461518584
15461523650
15461531402
15461538604
15461543975
15461549712
15461554351
15461560088
15461566192
15461572112
15461579192
15461583892
15461587249
15461594817
15461600615
15461606475
15461611236
15461616912
15461621856
15461628753
15461633391
15461640105
15461644500
15461650786
15461656035
15461661773
15461667876
15461674346
15461680693
15461686003
15461690886
15461694243
15461702361
15461705779
15461713652
15461717620
15461726287
15461729766
15461737456
15461742583
15461747649
15461752165
15461758574
15461765593
15461770537
15461777556
15461782561
15461787016
15461793242
15461799284
15461805876
15461813200
15461820280
15461826628
15461833159
15461838225
15461844023
15461850249
15461855559
15461861052
15461869536
15461879729
15461887358
15461893706
15461901030
15461907133
15461914641
15461917753
15461926054
15461932463
15461938627
15461940764
15461949736
15461955961
15461964262
15461972685
15461979216
15461984404
15461995085
15462000212
15462010160
15462018705
15462024931
15462036100
15462042875
15462047758
15462058622
15462067472
15462074064
15462083646
15462092374
15462100004
15462106535
15462115568
15462122526
15462131986
15462138761
15462148649
15462157804
15462166166
15462173185
15462180631
15462189176
15462198514
15462205777
15462214628
15462221708
15462231778
15462238126
15462248136
15462255033
15462263700
15462271024
15462278714
15462285184
15462293790
15462299832
15462308988
15462316312
15462324857
15462331265
15462339200
15462346524
15462356290
15462367276
15462374234
15462380399
15462389249
15462396024
15462408170
15462417020
15462429898
15462438199
15462450223
15462456814
15462466031
15462473233
15462480740
15462488431
15462495755
15462504727
15462512112
15462518521
15462525784
15462533963
15462542080
15462548489
15462558072
15462566555
15462576260
15462587979
15462595242
15462605618
15462612210
15462619534
15462625759
15462632534
15462638943
15462647183
15462652859
15462660610
15462670437
15462679592
15462690456
15462699917
15462706631
15462713955
15462722378
15462729580
15462735744
15462743191
15462749782
15462758633
15462763454
15462773830
15462780971
15462786709
15462793606
15462801418
15462808681
15462816066
15462822536
15462830288
15462836574
15462843593
15462851894
15462858913
15462867885
15462873683
15462880031
15462888210
15462895595
15462902675
15462910243
15462919948
15462926418
15462933315
15462939662
15462947841
15462954555
15462961025
15462968776
15462981227
15462987392
15462995021
15463001308
15463007411
15463014857
15463022670
15463028773
15463039027
15463041835
15463051784
15463056666
15463066493
15463071254
15463080653
15463085231
15463093104
15463100245
15463108668
15463115016
15463121547
15463127894
15463137050
15463144679
15463151820
15463160609
15463163539
15463175318
15463181544
15463190699
15463195765
15463203578
15463211146
15463223475
15463228663
15463237513
15463243434
15463251551
15463257899
15463265955
15463273035
15463281641
15463289942
15463296717
15463304041
15463312464
15463318018
15463324549
15463331324
15463336756
15463341028
15463351465
15463357996
15463362086
15463368006
15463373255
15463379053
15463384974
15463389734
15463393641
15463396631
15463404383
15463407618
15463414576
15463421290
15463425440
15463429041
15463436365
15463441004
15463446436
15463451136
15463460840
15463470911
15463480616
15463489344
15463495325
15463500574
15463505030
15463511011
15463517237
15463524378
15463528345
15463535608
15463541162
15463547022
15463552881
15463558130
15463563684
15463568079
15463575708
15463579370
15463586633
15463592371
15463596948
15463603174
15463607568
15463613061
15463616846
15463623621
15463630640
15463634485
15463641809
15463648462
15463653345
15463657373
15463662866
15463667749
15463669519
15463678308
15463684656
15463689233
15463694482
15463700158
15463704004
15463709253
15463712732
15463719079
15463724389
15463730554
15463736963
15463742395
15463746972
15463752893
15463758020
15463765100
15463771142
15463776208
15463781396
15463787927
15463791528
15463798303
15463801660
15463807824
15463814599
15463820703
15463825646
15463832482
15463836389
15463844079
15463850121
15463855187
15463864953
15463868493
15463879540
15463884301
15463891625
15463898522
15463904137
15463909936
15463916833
15463922021
15463929406
15463933922
15463938439
15463945092
15463949364
15463954552
15463962121
15463967492
15463974084
15463979088
15463984948
15463989159
15463993859
15464000634
15464006005
15464012230
15464018273
15464025170
15464031456
15464037743
15464043724
15464048302
15464054772
15464060570
15464064415
15464072533
15464076622
15464082909
15464087487
15464095238
15464100975
15464106468
15464110985
15464117943
15464123375
15464128868
15464135277
15464140587
15464146263
15464154808
15464159447
15464163475
15464171288
15464175194
15464182152
15464185997
15464192162
15464199913
15464209495
15464215599
15464220787
15464227379
15464234703
15464239769
15464245384
15464257957
15464263328
15464270286
15464276329
15464281822
15464286461
15464294395
15464301841
15464306785
15464313865
15464319481
15464326561
15464332481
15464338829
15464346153
15464351463
15464357261
15464362632
15464368736
15464373802
15464381065
15464384544
15464392051
15464398216
15464402549
15464407432
15464413413
15464417930
15464422935
15464427757
15464434654
15464440330
15464446372
15464451255
15464457237
15464462608
15464470176
15464477256
15464486594
15464496726
15464504783
15464513694
15464516807
15464530723
15464539512
15464545920
15464551169
15464562766
15464567893
15464578147
15464585227
15464594504
15464601767
15464608725
15464617820
15464626242
15464633445
15464641440
15464649924
15464658347
15464664939
15464673972
15464680381
15464689597
15464695883
15464703574
15464718711
15464729636
15464740073
15464747763
15464754721
15464763815
15464772116
15464778342
15464787253
15464792319
15464803549
15464810568
15464818014
15464825400
15464835654
15464841818
15464852133
15464858664
15464867270
15464873861
15464883932
15464890768
15464899740
15464906210
15464914389
15464923056
15464928854
15464943624
15464950766
15464958456
15464968771
15464976156
15464986532
15464993795
15465000875
15465009725
15465016317
15465022665
15465031088
15465040060
15465048727
15465055257
15465064108
15465072103
15465080404
15465095357
15465103658
15465112325
15465120382
15465127218
15465135274
15465140157
15465150533
15465155599
15465164754
15465174764
15465181295
15465188009
15465198140
15465205404
15465211812
15465220601
15465226949
15465236531
15465243184
15465251607
15465260213
15465266805
15465275777
15465282369
15465287435
15465298543
15465308003
15465318624
15465328877
15465337117
15465345418
15465355428
15465365254
15465372762
15465382039
15465388448
15465398030
15465404683
15465411397
15465422261
15465427327
15465439595
15465447896
15465456380
15465463399
15465471760
15465476887
15465490559
15465499287
15465506428
15465514180
15465522602
15465527424
15465538350
15465543415
15465553242
15465560566
15465569783
15465578388
15465585408
15465594624
15465601826
15465608662
15465617939
15465624409
15465634907
15465641987
15465651630
15465658039
15465667194
15465674030
15465683430
15465689655
15465698383
15465704853
15465712299
15465720661
15465727619
15465736103
15465743122
15465752033
15465758076
15465765888
15465772236
15465781940
15465788776
15465798298
15465807148
15465814350
15465823139
15465827839
15465837360
15465844501
15465852497
15465859272
15465867755
15465876911
15465883014
15465889179
15465898090
15465907611
15465915668
15465922443
15465930377
15465938556
15465947162
15465953510
15465962360
15465971271
15465979327
15465985675
15465993854
15466001422
15466008563
15466016925
15466026752
15466034503
15466042071
15466048785
15466058429
15466065143
15466073504
15466080035
15466088763
15466096881
15466105487
15466116351
15466122760
15466132037
15466141925
15466152484
15466163531
15466175921
15466183184
15466192156
15466207598
15466216387
15466224566
15466231036
15466236102
15466246966
15466256426
15466263201
15466270647
15466280596
15466285601
15466294390
15466303850
15466310076
15466322222
15466332171
15466340227
15466348101
15466357195
15466363787
15466370257
15466380205
15466386553
15466392901
15466401079
15466408220
15466414507
15466423540
15466432024
15466438494
15466446855
15466455095
15466461138
15466468950
15466477007
15466484026
15466491411
15466497759
15466506975
15466513445
15466524004
15466532304
15466538530
15466546404
15466554521
15466571062
15466578203
15466586259
15466591203
15466601823
15466606767
15466617204
15466622758
15466632463
15466638750
15466648454
15466655656
15466664445
15466671037
15466679582
15466688310
15466696061
15466704484
15466711259
15466719926
15466728227
15466735307
15466742936
15466752397
15466757463
15466767106
15466773881
15466779862
15466785234
15466791825
15466796220
15466802262
15466807145
15466814408
15466820023
15466828263
15466834123
15466840409
15466847001
15466852372
15466858720
15466862077
15466868974
15466875138
15466882218
15466885758
15466893265
15466898453
15466904618
15466912186
15466917252
15466922501
15466929642
15466936539
15466942765
15466948258
15466951676
15466960099
15466963761
15466972794
15466981400
15466989640
15466997147
15467003067
15467009537
15467017838
15467023880
15467032608
15467039139
15467048477
15467054398
15467062088
15467068436
15467076737
15467085037
15467091446
15467099259
15467104202
15467114151
15467119400
15467131973
15467140946
15467152298
15467161881
15467171158
15467180374
15467187027
15467195511
15467203323
15467209671
15467216385
15467222549
15467230789
15467238663
15467244705
15467252212
15467258682
15467266128
15467273147
15467278702
15467282608
15467290664
15467294815
15467302810
15467306717
15467313858
15467318863
15467325943
15467330642
15467336380
15467346633
15467352127
15467356460
15467364089
15467369461
15467375320
15467380569
15467387222
15467392227
15467398757
15467403579
15467409927
15467414932
15467419753
15467427871
15467431228
15467439101
15467442642
15467451003
15467456557
15467462539
15467467483
15467473891
15467479385
15467485488
15467490127
15467495864
15467500625
15467507766
15467512405
15467515822
15467523696
15467527297
15467534194
15467539992
15467547866
15467553481
15467557876
15467562453
15467568313
15467573806
15467579848
15467584487
15467590651
15467597609
15467603835
15467608596
15467615065
15467619704
15467624648
15467633132
15467638686
15467647841
15467652175
15467660109
15467665602
15467671157
15467675734
15467682448
15467688429
15467693984
15467698866
15467704421
15467711134
15467715590
15467721327
15467726637
15467731825
15467739211
15467743483
15467749953
15467754591
15467759901
15467765334
15467770338
15467776137
15467783278
15467789503
15467795058
15467801039
15467805922
15467811537
15467817396
15467823500
15467828566
15467833510
15467839247
15467842665
15467850477
15467856703
15467861159
15467866102
15467874403
15467880201
15467887953
15467891371
15467900465
15467903944
15467912428
15467917433
15467923719
15467929335
15467935194
15467940138
15467945387
15467950392
15467957106
15467961561
15467968763
15467974317
15467979200
15467987806
15467991346
15467998976
15468003065
15468013197
15468018018
15468023206
15468033338
15468042005
15468049390
15468057630
15468065015
15468070203
15468075147
15468081739
15468087965
15468096143
15468102064
15468110975
15468118970
15468126050
15468134107
15468140577
15468148328
15468152906
15468162916
15468172071
15468178296
15468184766
15468194593
15468199537
15468209180
15468215711
15468223340
15468229871
15468238477
15468245374
15468254590
15468260938
15468269849
15468276685
15468286206
15468294995
15468302564
15468310986
15468319531
15468325879
15468330335
15468342175
15468349927
15468357800
15468365796
15468372327
15468378857
15468388989
15468393689
15468402661
15468410412
15468418713
15468425305
15468432934
15468439526
15468448376
15468455029
15468462414
15468471325
15468478955
15468486889
15468497754
15468507580
15468517956
15468526806
15468535534
15468542980
15468549450
15468555920
15468562573
15468568127
15468575207
15468580822
15468588330
15468594067
15468601513
15468608227
15468617077
15468623852
15468630810
15468637585
15468644848
15468651684
15468659252
15468666088
15468673656
15468680981
15468686352
15468693432
15468700573
15468707714
15468714794
15468722240
15468729931
15468736339
15468743664
15468750805
15468761059
15468767711
15468775524
15468782421
15468788707
15468797680
15468803844
15468810253
15468819408
15468825756
15468833446
15468839855
15468845226
15468853954
15468860240
15468867504
15468876476
15468883922
15468889720
15468898265
15468904308
15468911022
15468918956
15468926585
15468934703
15468941844
15468949962
15468955455
15468964915
15468969737
15468979137
15468986949
15468992931
15468999644
15469008006
15469014720
15469023326
15469030223
15469038096
15469044200
15469052134
15469060679
15469071422
15469078624
15469087474
15469097361
15469103587
15469110240
15469119090
15469125743
15469133555
15469140208
15469149363
15469156626
15469163767
15469170359
15469178111
15469184336
15469192759
15469200755
15469208506
15469214793
15469222361
15469230113
15469236704
15469244761
15469254465
15469260630
15469269175
15469277048
15469281809
15469289927
15469296641
15469305369
15469312327
15469320994
15469327585
15469336374
15469342966
15469351084
15469358164
15469367380
15469375498
15469384287
15469391367
15469401377
15469408945
15469417795
15469425180
15469435434
15469443918
15469451059
15469457407
15469463938
15469469492
15469473825
15469481760
15469489633
15469497690
15469503183
15469506662
15469515146
15469517038
15469523630
15469527109
15469535043
15469539926
15469547800
15469551157
15469557199
15469561288
15469566782
15469570322
15469576852
15469582468
15469588815
15469594186
15469599618
15469604989
15469610300
15469614694
15469618967
15469623971
15469631662
15469636667
15469644113
15469648813
15469653573
15469660714
15469664621
15469671029
15469676828
15469684091
15469687753
15469694345
15469699716
15469705270
15469710580
15469716867
15469722726
15469730477
15469737435
15469744210
15469749276
15469757821
15469762521
15469770516
15469775460
15469783883
15469788644
15469794259
15469797921
15469805856
15469809335
15469817147
15469823068
15469830087
15469834908
15469840463
15469846810
15469852425
15469857003
15469863717
15469869942
15469876412
15469880990
15469887704
15469893563
15469897408
15469904061
15469909859
15469917184
15469923714
15469928963
15469934090
15469940133
15469945504
15469951546
15469958748
15469961129
15469968697
15469974251
15469983284
15469987191
15469994454
15469999337
15470006356
15470011788
15470018380
15470023140
15470030831
15470037178
15470042855
15470047982
15470055367
15470059944
15470066536
15470072273
15470080696
15470085457
15470089913
15470099434
15470103401
15470110420
15470114815
15470122261
15470127449
15470132393
15470139656
15470145699
15470150520
15470156258
15470162056
15470168037
15470172920
15470179573
15470185188
15470188728
15470198067
15470202095
15470208931
15470214546
15470220772
15470226143
15470232368
15470237007
15470244209
15470250007
15470254829
15470261055
15470267524
15470272957
15470278083
15470287056
15470290779
15470297371
15470303840
15470310310
15470315864
15470321479
15470327644
15470335517
15470342475
15470349128
15470355110
15470359016
15470367927
15470375007
15470382942
15470390205
15470398689
15470409919
15470419624
15470428169
15470436591
15470443549
15470446540
15470458625
15470465339
15470474311
15470481452
15470490180
15470498237
15470503913
15470513984
15470518683
15470527045
15470533942
15470541266
15470551642
15470559150
15470566535
15470573188
15470581672
15470588080
15470593390
15470602790
15470611213
15470620429
15470627326
15470635260
15470641486
15470648566
15470656073
15470663520
15470670844
15470678107
15470684516
15470692511
15470698248
15470704352
15470711310
15470720770
15470730414
15470740546
15470751166
15470769904
15470779486
15470790777
15470799628
15470807440
15470812567
15470819342
15470825873
15470832831
15470840277
15470847174
15470852484
15470856939
15470864019
15470868719
15470875555
15470882940
15470890142
15470895208
15470901068
15470907415
15470913092
15470917669
15470924139
15470929144
15470936651
15470941595
15470945013
15470953192
15470956854
15470963812
15470968572
15470974920
15470980413
15470987921
15470993719
15470999517
15471003790
15471009771
15471014105
15471021246
15471026128
15471032232
15471038702
15471044012
15471049688
15471055181
15471059820
15471066045
15471072088
15471076482
15471085454
15471088933
15471096502
15471100164
15471106695
15471113286
15471117986
15471124273
15471131475
15471136785
15471143133
15471148748
15471156743
15471161809
15471168889
15471175725
15471185125
15471188482
15471195806
15471201970
15471208013
15471211370
15471218755
15471223394
15471230291
15471233647
15471239690
15471244573
15471251042
15471254338
15471262334
15471265813
15471273808
15471276860
15471284184
15471288030
15471294377
15471299321
15471304692
15471310124
15471317693
15471322820
15471328679
15471335027
15471339299
15471345769
15471350468
15471356633
15471362553
15471368657
15471373845
15471379643
15471384648
15471391118
15471394475
15471402592
15471407231
15471414250
15471418522
15471425786
15471432683
15471439030
15471444706
15471450139
15471457829
15471462285
15471471074
15471477971
15471485905
15471492070
15471497807
15471502751
15471507878
15471513920
15471519657
15471524174
15471531498
15471537297
15471542301
15471552922
15471557316
15471565373
15471569157
15471578861
15471584599
15471590458
15471595829
15471603947
15471609135
15471616093
15471623295
15471629337
15471635258
15471644901
15471651005
15471658268
15471665348
15471671329
15471676823
15471683353
15471688053
15471694157
15471699833
15471703312
15471711796
15471716251
15471725223
15471729313
15471736576
15471741886
15471747074
15471751957
15471759342
15471764896
15471772525
15471777958
15471785770
15471792484
15471798404
15471804630
15471809452
15471814456
15471820682
15471827213
15471832828
15471838199
15471844913
15471849430
15471854923
15471860721
15471865787
15471871829
15471877323
15471883121
15471889102
15471894840
15471898685
15471905399
15471912906
15471919070
15471924930
15471932376
15471937381
15471943668
15471949161
15471954959
15471961063
15471967715
15471973147
15471980594
15471985293
15471992007
15471997256
15472000796
15472010318
15472015567
15472022830
15472027896
15472034366
15472040103
15472045840
15472051028
15472056704
15472063846
15472070132
15472075259
15472082339
15472087222
15472093142
15472098452
15472102114
15472110659
15472116641
15472124636
15472129824
15472137393
15472143130
15472149478
15472155093
15472160281
15472165469
15472172915
15472179751
15472185305
15472191042
15472197817
15472202334
15472208010
15472212649
15472216982
15472226016
15472230959
15472236880
15472240298
15472247805
15472251162
15472259768
15472264590
15472272890
15472277407
15472283999
15472288821
15472295168
15472300173
15472306521
15472312014
15472318422
15472322817
15472329165
15472334170
15472341250
15472347719
15472353457
15472358645
15472365603
15472370546
15472377565
15472384523
15472390749
15472396242
15472401918
15472409975
15472415895
15472422243
15472429384
15472434633
15472439089
15472445070
15472451662
15472456850
15472461305
15472469606
15472474184
15472479860
15472485597
15472490724
15472495363
15472502626
15472507326
15472514711
15472521303
15472524721
15472531923
15472535463
15472543336
15472547182
15472555543
15472562013
15472567323
15472572694
15472578615
15472586000
15472591310
15472596132
15472602357
15472609437
15472616456
15472624330
15472631959
15472637575
15472643983
15472648866
15472655336
15472662172
15472666993
15472673585
15472678529
15472684755
15472689515
15472693971
15472700380
15472706727
15472713319
15472717836
15472725587
15472731019
15472737367
15472749940
15472763124
15472774232
15472785890
15472794862
15472802430
15472810487
15472818482
15472826539
15472836366
15472840577
15472845582
15472850892
15472855042
15472859559
15472863770
15472869263
15472875306
15472879822
15472884705
15472889283
15472893799
15472899232
15472905213
15472909119
15472916627
15472920838
15472925843
15472929932
15472935608
15472939576
15472945862
15472953553
15473000611
15473006043
15473010804
15473014954
15473019287
15473024048
15473029114
15473035462
15473040344
15473044495
15473049500
15473054383
15473058655
15473062866
15473067261
15473074036
15473080017
15473086487
15473093262
15473097107
15473101624
15473106995
15473111267
15473116516
15473121643
15473126404
15473132263
15473137268
15473140625
15473146606
15473152100
15473156250
15473161255
15473164917
15473171387
15473176025
15473180542
15473184631
15473191467
15473195923
15473200012
15473205261
15473209900
15473215759
15473220398
15473225219
15473229614
15473234131
15473239502
15473243774
15473247680
15473254638
15473260315
15473264160
15473269531
15473273498
15473279663
15473285949
15473292053
15473296630
15473302612
15473306579
15473311645
15473315673
15473320861
15473325012
15473330871
15473334960
15473340026
15473344909
15473348876
15473353332
15473358520
15473363098
15473367431
15473373779
15473378600
15473382690
15473387939
15473393066
15473398010
15473403075
15473407592
15473412902
15473416930
15473421935
15473426025
15473430297
15473437072
15473443359
15473447814
15473454101
15473458678
15473465209
15473472289
15473476928
15473481933
15473486693
15473492797
15473498717
15473503722
15473509521
15473516234
15473521483
15473529662
15473533873
15473540465
15473550231
15473555297
15473562194
15473567321
15473572936
15473578124
15473582396
15473589110
15473593261
15473599852
15473605834
15473612426
15473619017
15473625487
15473629637
15473635741
15473642455
15473645506
15473655638
15473667052
15473675292
15473684691
15473695433
15473703368
15473715392
15473724425
15473733458
15473742186
15473748473
15473755614
15473761107
15473767088
15473773131
15473780150
15473786864
15473791563
15473797667
15473803282
15473807188
15473813841
15473820555
15473828367
15473835264
15473842527
15473846251
15473853575
15473858336
15473865110
15473870054
15473875853
15473880980
15473885801
15473889952
15473893980
15473899961
15473905516
15473910398
15473915525
15473920225
15473925413
15473930601
15473935667
15473941465
15473948423
15473956419
15473961485
15473967771
15473970579
15473977842
15473982176
15473989378
15473994688
15474001402
15474005918
15474013120
15474017515
15474023862
15474032285
15474038938
15474044004
15474052732
15474059812
15474064390
15474070920
15474076841
15474081724
15474088682
15474093442
15474100278
15474106077
15474110288
15474117612
15474123655
15474129880
15474133603
15474145322
15474151609
15474155637
15474162351
15474166684
15474172544
15474178342
15474184079
15474191648
15474197934
15474202756
15474209165
15474214048
15474220517
15474224729
15474229611
15474236692
15474242978
15474247373
15474253110
15474257504
15474263364
15474269772
15474273679
15474281552
15474286984
15474292111
15474297727
15474303037
15474309567
15474314755
15474318967
15474325681
15474330441
15474336728
15474341244
15474347226
15474352475
15474357846
15474363583
15474368954
15474374631
15474381833
15474386532
15474392941
15474399533
15474405697
15474410275
15474416195
15474425168
15474430905
15474435971
15474441037
15474445858
15474452206
15474456295
15474461850
15474468258
15474475155
15474480099
15474485897
15474492245
15474497677
15474502621
15474508175
15474516049
15474521542
15474526242
15474532955
15474537777
15474543087
15474547238
15474555782
15474561215
15474566464
15474571102
15474576351
15474582211
15474586605
15474593380
15474599300
15474607845
15474612301
15474617977
15474623409
15474628109
15474635311
15474639767
15474645992
15474650570
15474658260
15474663143
15474668941
15474675655
15474680172
15474685299
15474691646
15474697567
15474703426
15474711239
15474716244
15474722896
15474728756
15474734432
15474738826
15474745601
15474752865
15474759151
15474764522
15474769954
15474774471
15474780880
15474785884
15474790462
15474798580
15474805110
15474809871
15474815547
15474820980
15474827144
15474832149
15474839412
15474845577
15474852535
15474859615
15474863704
15474870723
15474875301
15474880733
15474885982
15474891719
15474899043
15474905208
15474910396
15474914851
15474921016
15474925777
15474931880
15474937862
15474942744
15474949641
15474954341
15474959102
15474965571
15474969661
15474976863
15474982966
15474989558
15474996150
15475003596
15475007930
15475015742
15475022883
15475028315
15475033809
15475040339
15475046321
15475051814
15475058040
15475064631
15475068293
15475075496
15475080806
15475086543
15475092890
15475098201
15475103633
15475109126
15475114131
15475120112
15475124385
15475130915
15475138667
15475144404
15475148738
15475154109
15475161677
15475166926
15475172724
15475177058
15475184931
15475190119
15475195551
15475201533
15475206660
15475211665
15475218623
15475222529
15475229914
15475235957
15475242487
15475248835
15475254877
15475259882
15475265436
15475270075
15475276850
15475283442
15475289362
15475294855
15475300409
15475305231
15475310663
15475315607
15475322687
15475328425
15475336664
15475340876
15475345514
15475351801
15475356379
15475363398
15475368525
15475374445
15475380487
15475387262
15475392267
15475398127
15475404047
15475408991
15475414545
15475420282
15475425165
15475431818
15475438776
15475444208
15475447321
15475455072
15475459406
15475466120
15475475580
15475481744
15475488519
15475492853
15475498651
15475504266
15475509027
15475516290
15475521295
15475527887
15475533990
15475538568
15475543573
15475549676
15475555231
15475560907
15475566339
15475573175
15475578607
15475583856
15475590265
15475596307
15475602594
15475607049
15475613580
15475621942
15475629937
15475634149
15475642877
15475648065
15475654229
15475659417
15475664972
15475671624
15475676019
15475682794
15475687554
15475693292
15475699212
15475703607
15475710382
15475716058
15475722772
15475727654
15475732476
15475738946
15475744744
15475750360
15475755059
15475761590
15475767327
15475773553
15475779656
15475784844
15475789422
15475795403
15475800042
15475806756
15475814751
15475821160
15475827142
15475831170
15475835686
15475843255
15475847832
15475854546
15475864617
15475870354
15475874932
15475882928
15475888421
15475895989
15475902703
15475908989
15475916680
15475922844
15475928032
15475936333
15475942864
15475948601
15475953362
15475960869
15475965447
15475972710
15475978142
15475983452
15475988762
15475994500
15476000176
15476006279
15476013176
15476019524
15476025566
15476031365
15476037590
15476043450
15476048271
15476054619
15476059929
15476067436
15476070366
15476077202
15476083733
15476089592
15476094048
15476100090
15476109550
15476114372
15476121696
15476126274
15476132683
15476137382
15476144585
15476149834
15476159965
15476165886
15476171440
15476178032
15476185051
15476189506
15476196892
15476202446
15476208671
15476215507
15476223381
15476229667
15476234977
15476241508
15476248771
15476253776
15476259636
15476265678
15476272697
15476277031
15476283622
15476289360
15476294731
15476301261
15476306694
15476311943
15476318839
15476323173
15476329643
15476335075
15476340202
15476346183
15476352104
15476359062
15476364494
15476370231
15476376334
15476382255
15476387382
15476393852
15476399650
15476404655
15476411552
15476416312
15476423576
15476429008
15476434684
15476439811
15476447257
15476454215
15476460136
15476464469
15476471671
15476477530
15476482718
15476487906
15476493766
15476501578
15476507621
15476512931
15476518424
15476523856
15476529532
15476535880
15476542106
15476546378
15476555777
15476561209
15476566886
15476569999
15476577079
15476581656
15476588797
15476596732
15476602774
15476606436
15476613578
15476620780
15476626273
15476633048
15476639151
15476642325
15476650809
15476654105
15476663260
15476669119
15476676688
15476682791
15476689200
15476697684
15476703787
15476709219
15476716299
15476722708
15476729178
15476736014
15476742606
15476748160
15476753287
15476761587
15476766104
15476773977
15476779776
15476786246
15476792227
15476798880
15476806021
15476812430
15476817251
15476822867
15476827627
15476834707
15476839468
15476844778
15476854239
15476861441
15476867666
15476871878
15476878897
15476883413
15476889944
15476894827
15476900442
15476907217
15476914480
15476919485
15476924429
15476930715
15476935903
15476938650
15476948843
15476954702
15476960745
15476967031
15476972768
15476977529
15476983328
15476989553
15476994253
15477000845
15477006765
15477012563
15477016286
15477023367
15477029165
15477034048
15477039358
15477045217
15477052602
15477058523
15477064870
15477069936
15477075185
15477082815
15477087880
15477093862
15477099111
15477105031
15477110463
15477116445
15477121267
