15824304582
15824311540
15824317094
15824324296
15824330278
15824336931
15824343461
15824349809
15824356706
15824363420
15824370378
15824375077
15824382890
15824390580
15824395829
15824401933
15824411576
15824418046
15824425126
15824431779
15824438310
15824444596
15824452226
15824459062
15824465714
15824472672
15824481217
15824487138
15824498612
15824506058
15824514054
15824523820
15824527787
15824539200
15824546220
15824553178
15824560807
15824568192
15824576005
15824581864
15824590470
15824594498
15824605485
15824613480
15824620499
15824630448
15824635880
15824643143
15824650467
15824656693
15824662796
15824669266
15824675919
15824680985
15824689408
15824693070
15824700821
15824704544
15824714249
15824721939
15824728714
15824735001
15824740128
15824747513
15824752884
15824759903
15824765396
15824774002
15824778153
15824787613
15824791397
15824801102
15824805923
15824813126
15824820816
15824827347
15824834000
15824840835
15824847061
15824854019
15824861709
15824866775
15824874222
15824881302
15824888260
15824893692
15824900406
15824905777
15824914016
15824919326
15824925796
15824934341
15824939712
15824946548
15824953384
15824959793
15824965896
15824972732
15824980178
15824986648
15824991836
15824999893
15825005996
15825012710
15825018752
15825024917
15825032241
15825040420
15825047195
15825055435
15825063796
15825072952
15825080886
15825088638
15825095657
15825104018
15825109328
15825116775
15825124038
15825131423
15825138442
15825143569
15825148574
15825156631
15825160354
15825168105
15825174575
15825181655
15825186233
15825196975
15825204299
15825212294
15825217482
15825224563
15825230544
15825238051
15825245925
15825251601
15825259230
15825263320
15825270888
15825276564
15825285109
15825288832
15825296340
15825300063
15825308730
15825312514
15825320632
15825327956
15825334975
15825341506
15825349989
15825355910
15825363234
15825369276
15825376357
15825381911
15825389174
15825395827
15825401015
15825406447
15825411513
15825419081
15825425246
15825432509
15825439039
15825446425
15825451002
15825459975
15825466139
15825473829
15825480543
15825488844
15825493544
15825502638
15825506849
15825516676
15825523878
15825530897
15825535231
15825544752
15825549086
15825557203
15825561415
15825570936
15825575514
15825584242
15825588941
15825597914
15825604383
15825611463
15825617689
15825625623
15825632581
15825640577
15825647962
15825656751
15825661390
15825670179
15825676344
15825682935
15825688795
15825697340
15825707349
15825714857
15825722425
15825732557
15825738721
15825747083
15825756055
15825762891
15825769239
15825776502
15825784009
15825791578
15825798597
15825806653
15825812513
15825820874
15825827222
15825832044
15825837720
15825843641
15825847913
15825853833
15825858045
15825863538
15825868604
15825870313
15825880323
15825885205
15825890332
15825894666
15825899549
15825904553
15825910108
15825915051
15825921887
15825927381
15825932019
15825938245
15825944104
15825948743
15825954175
15825959424
15825964368
15825970593
15825977063
15825984998
15825993604
15825999829
15826007397
15826013013
15826017651
15826022107
15826026318
15826032117
15826036023
15826040845
15826045056
15826050732
15826056653
15826061841
15826066479
15826072705
15826076123
15826083386
15826087781
15826093762
15826099072
15826104443
15826109143
15826114148
15826119214
15826125134
15826129651
15826135510
15826142163
15826147168
15826152905
15826156872
15826162243
15826167614
15826173474
15826179394
15826185192
15826190136
15826194226
15826201000
15826206799
15826211254
15826217297
15826222973
15826229321
15826234997
15826240063
15826245434
15826249584
15826255261
15826261303
15826267101
15826271557
15826277111
15826282604
15826288342
15826294018
15826302013
15826307873
15826313244
15826318615
15826324169
15826329662
15826334667
15826340649
15826345226
15826349315
15826354687
15826358959
15826367077
15826372753
15826376964
15826382152
15826386669
15826392223
15826397777
15826401989
15826408031
15826413891
15826420055
15826424511
15826430248
15826435192
15826439647
15826446056
15826453624
15826458568
15826463634
15826469127
15826474559
15826479137
15826484020
15826490489
15826495433
15826498851
15826505443
15826508983
15826515514
15826520458
15826526805
15826531749
15826538036
15826541881
15826548900
15826553600
15826560497
15826565807
15826571300
15826575816
15826582103
15826586925
15826593578
15826597789
15826602733
15826608958
15826614574
15826618846
15826624339
15826631297
15826635997
15826641368
15826646373
15826651500
15826653697
15826662120
15826665721
15826673961
15826678233
15826685252
15826690745
15826696971
15826700877
15826707591
15826712352
15826719127
15826724253
15826729808
15826737803
15826743846
15826748301
15826754222
15826760020
15826766612
15826772471
15826777964
15826784251
15826788340
15826795054
15826798899
15826805674
15826811167
15826818247
15826821971
15826829600
15826835276
15826840525
15826846934
15826852122
15826857127
15826864085
15826873240
15826877573
15826884104
15826890025
15826896128
15826901987
15826908030
15826913157
15826918955
15826924204
15826929697
15826933726
15826939585
15826945139
15826950999
15826957895
15826964243
15826971811
15826978769
15826985422
15826994211
15826998728
15827010569
15827015513
15827028269
15827033274
15827042856
15827049875
15827057993
15827065622
15827075815
15827082956
15827089853
15827099191
15827107675
15827114389
15827123056
15827129526
15827135507
15827147287
15827154855
15827164255
15827171579
15827180795
15827187448
15827196542
15827205637
15827212595
15827219614
15827231027
15827238229
15827245981
15827253854
15827262643
15827269235
15827278818
15827285470
15827294809
15827304696
15827313302
15827322213
15827329354
15827337838
15827345712
15827352731
15827361825
15827368600
15827377877
15827384835
15827392159
15827402047
15827409799
15827420419
15827429025
15827438973
15827446114
15827456612
15827464730
15827472359
15827479623
15827490182
15827495248
15827506844
15827514901
15827523202
15827530648
15827538399
15827546578
15827554513
15827560189
15827568551
15827576485
15827584420
15827589180
15827599984
15827607979
15827615792
15827622384
15827631050
15827639534
15827648079
15827655037
15827663765
15827672249
15827680672
15827688362
15827697212
15827704476
15827712593
15827720772
15827728768
15827735481
15827743416
15827751289
15827759468
15827767525
15827775459
15827782478
15827790474
15827798042
15827805855
15827814339
15827820381
15827828194
15827836128
15827843696
15827851753
15827860481
15827866707
15827875740
15827882393
15827891182
15827899177
15827906685
15827914497
15827922187
15827930122
15827938179
15827944221
15827954170
15827960151
15827970100
15827976509
15827985481
15827995063
15828003608
15828010322
15828020637
15828027839
15828038032
15828047797
15828055244
15828061347
15828071296
15828078193
15828086982
15828092902
15828101264
15828109626
15828118232
15828124641
15828132819
15828142036
15828150519
15828157050
15828166388
15828175300
15828183295
15828189704
15828198554
15828207648
15828216254
15828224860
15828232001
15828240729
15828247687
15828256232
15828264411
15828273322
15828282111
15828291083
15828298895
15828307684
15828316596
15828323248
15828328314
15828340094
15828349799
15828358527
15828364081
15828370123
15828373541
15828381232
15828386969
15828393927
15828397406
15828405157
15828408636
15828416693
15828422369
15828428046
15828434393
15828441717
15828446600
15828455328
15828462164
15828467047
15828470648
15828477972
15828483648
15828490973
15828496710
15828502691
15828507025
15828514166
15828520453
15828525213
15828530401
15828538153
15828541937
15828549505
15828555181
15828559759
15828564886
15828571112
15828576177
15828583196
15828588507
15828595465
15828600775
15828607488
15828612493
15828618719
15828623663
15828628851
15828635503
15828641363
15828646307
15828652227
15828656805
15828663702
15828670416
15828675481
15828681402
15828687810
15828694036
15828699895
15828704473
15828710210
15828716253
15828722051
15828729680
15828735601
15828741521
15828747625
15828752141
15828758855
15828765142
15828770452
15828777410
15828783574
15828789800
15828795415
15828801458
15828807195
15828813115
15828817693
15828823857
15828829473
15828835759
15828840825
15828847539
15828853459
15828859197
15828865361
15828871648
15828879827
15828888799
15828897649
15828903874
15828913335
15828919255
15828924382
15828928777
15828935674
15828939824
15828945561
15828952275
15828958257
15828963322
15828970097
15828975041
15828980962
15828987004
15828993230
15828997685
15829004277
15829008794
15829014897
15829022710
15829028630
15829035039
15829041508
15829048527
15829054204
15829060063
15829065190
15829071476
15829078984
15829083745
15829089848
15829095890
15829100895
15829106511
15829111882
15829119145
15829125737
15829132695
15829137699
15829144657
15829150334
15829155278
15829161869
15829167790
15829173161
15829178349
15829184574
15829189762
15829196720
15829202152
15829206974
15829212528
15829219120
15829224125
15829230900
15829235783
15829241764
15829247013
15829254093
15829260197
15829266727
15829272282
15829277958
15829283695
15829291630
15829297489
15829302982
15829308903
15829316532
15829320682
15829330143
15829335941
15829342289
15829345707
15829353214
15829359806
15829365726
15829372257
15829377872
15829383671
15829390079
15829395816
15829403141
15829409244
15829414859
15829420169
15829427433
15829433231
15829439823
15829446292
15829455570
15829460453
15829466861
15829473331
15829478580
15829484744
15829490177
15829497379
15829502445
15829508914
15829514407
15829520084
15829528140
15829532108
15829539676
15829545841
15829551334
15829557498
15829565616
15829571353
15829578983
15829585757
15829595767
15829602847
15829610965
15829618472
15829627200
15829634158
15829642337
15829649356
15829657596
15829665042
15829674136
15829682559
15829690982
15829703189
15829712466
15829721438
15829729800
15829738711
15829745913
15829755679
15829761965
15829771487
15829780154
15829787905
15829796267
15829804324
15829813052
15829821536
15829830569
15829837527
15829846682
15829854739
15829861269
15829871096
15829880617
15829888125
15829897524
15829903933
15829910158
15829919070
15829925478
15829934817
15829941408
15829950136
15829956728
15829965456
15829972902
15829980715
15829988100
15829995607
15830003908
15830013491
15830021791
15830030336
15830036989
15830045473
15830054750
15830065065
15830073366
15830081240
15830087526
15830095400
15830103395
15830111269
15830119875
15830126527
15830134889
15830142824
15830151186
15830157045
15830165956
15830174989
15830182497
15830190858
15830200807
15830209230
15830217164
15830225160
15830234376
15830241578
15830248903
15830257020
15830263734
15830273439
15830282350
15830290895
15830297059
15830306581
15830314515
15830319398
15830330751
15830336427
15830346070
15830354554
15830364137
15830374085
15830382081
15830389588
15830397828
15830406251
15830412049
15830421021
15830430421
15830449891
15830457764
15830465821
15830473145
15830481385
15830489930
15830498109
15830506898
15830515015
15830521241
15830529664
15830537598
15830545350
15830554688
15830561585
15830570862
15830578919
15830586121
15830592347
15830602295
15830610840
15830616822
15830625061
15830633179
15830641114
15830646973
15830655213
15830663880
15830671082
15830679383
15830686463
15830692993
15830701477
15830707947
15830716004
15830722900
15830731201
15830738342
15830744690
15830751587
15830760254
15830766785
15830776672
15830785583
15830794434
15830803100
15830813660
15830822082
15830830017
15830836609
15830845520
15830854675
15830861206
15830868469
15830876770
15830883667
15830890197
15830901428
15830906982
15830917480
15830927429
15830934814
15830942504
15830949157
15830955017
15830961608
15830968261
15830972412
15830980041
15830984558
15830992309
15830998474
15831004882
15831010619
15831016906
15831023071
15831027587
15831033935
15831039550
15831046691
15831053161
15831061340
15831065124
15831071960
15831076537
15831084594
15831088195
15831096862
15831103026
15831108520
15831115417
15831121032
15831126769
15831131713
15831138854
15831146239
15831151549
15831157287
15831163878
15831169982
15831175719
15831182799
15831188720
15831195250
15831200133
15831206969
15831212279
15831216124
15831225646
15831231932
15831237181
15831243895
15831249022
15831252379
15831261534
15831267028
15831274230
15831280211
15831287596
15831293150
15831300597
15831306700
15831312499
15831319701
15831324645
15831328429
15831335814
15831342040
15831348814
15831354185
15831360533
15831364806
15831372191
15831377745
15831383421
15831390196
15831396239
15831401549
15831407896
15831414061
15831418577
15831425352
15831430296
15831437803
15831445006
15831450316
15831457090
15831462156
15831467466
15831474608
15831478941
15831485899
15831491697
15831498411
15831503538
15831508970
15831514097
15831521116
15831527281
15831532774
15831539671
15831541868
15831551329
15831557127
15831562681
15831569090
15831573789
15831579588
15831585996
15831594297
15831598753
15831605283
15831610716
15831617735
15831622923
15831628111
15831633543
15831640134
15831647092
15831653013
15831659055
15831664426
15831669675
15831674863
15831682004
15831687681
15831694395
15831701292
15831707700
15831712583
15831716978
15831724668
15831729917
15831736936
15831743711
15831749265
15831753049
15831763974
15831768735
15831776731
15831787412
15831791562
15831799802
15831805356
15831811155
15831815488
15831821592
15831827634
15831833615
15831841001
15831847287
15831852536
15831860410
15831872556
15831884885
15831895261
15831904477
15831913205
15831920102
15831927976
15831935178
15831942563
15831950131
15831955014
15831960019
15831964352
15831969296
15831974240
15831978757
15831983578
15831989011
15831994626
15832000912
15832005673
15832009823
15832014706
15832019589
15832023862
15832028744
15832033627
15832038205
15832043515
15832047116
15832053219
15832058774
15832064694
15832069149
15832075070
15832080929
15832085873
15832091854
15832096493
15832100705
15832106503
15832110714
15832116513
15832121579
15832126217
15832130307
15832136349
15832140560
15832145504
15832149960
15832158383
15832165463
15832173275
15832179379
15832187618
15832193661
15832201656
15832207577
15832216427
15832224178
15832232540
15832237179
15832244991
15832251034
15832261471
15832266231
15832274776
15832283382
15832291073
15832297726
15832307308
15832311703
15832320064
15832327205
15832336178
15832345272
15832353573
15832361873
15832367733
15832376156
15832383602
15832390194
15832398861
15832408809
15832417842
15832424861
15832432857
15832441463
15832449031
15832457759
15832466365
15832473384
15832482051
15832490413
15832496944
15832504146
15832511470
15832519038
15832525386
15832533382
15832541682
15832549678
15832555904
15832563533
15832570613
15832577876
15832584468
15832593379
15832601192
15832608821
15832615047
15832622371
15832628474
15832635737
15832643550
15832650081
15832658259
15832665889
15832673823
15832681392
15832688289
15832693843
15832702021
15832708308
15832716182
15832723933
15832729304
15832738703
15832746760
15832754023
15832759883
15832768733
15832777949
15832785822
15832792292
15832799555
15832807307
15832813288
15832821345
15832829462
15832837031
15832845210
15832853022
15832860651
15832867792
15832875727
15832882685
15832891657
15832900995
15832907648
15832915400
15832923395
15832930781
15832939203
15832946711
15832953058
15832962397
15832968622
15832977289
15832983393
15832991510
15832998835
15833005487
15833013666
15833022150
15833032099
15833037226
15833046137
15833052179
15833060480
15833069269
15833078119
15833085687
15833093073
15833101618
15833107660
15833113580
15833122797
15833130975
15833138605
15833145197
15833155756
15833162103
15833169611
15833178216
15833185663
15833193597
15833201471
15833210687
15833219598
15833225824
15833233636
15833241327
15833249505
15833254998
15833263055
15833269525
15833277826
15833284051
15833288751
15833299737
15833308160
15833314630
15833322686
15833332757
15833341302
15833347528
15833358392
15833364739
15833373651
15833379632
15833387811
15833397637
15833404839
15833410394
15833418572
15833426995
15833433892
15833439690
15833447442
15833455071
15833463372
15833469598
15833478020
15833484124
15833491204
15833495782
15833501397
15833507500
15833511956
15833517632
15833523736
15833531487
15833537896
15833543267
15833548821
15833555779
15833559929
15833567620
15833573845
15833579155
15833584832
15833590813
15833596367
15833603630
15833607598
15833615776
15833622246
15833627068
15833632134
15833639092
15833645439
15833650383
15833657524
15833662529
15833666008
15833672966
15833676750
15833685539
15833689140
15833695488
15833701164
15833705559
15833710869
15833716423
15833721489
15833727654
15833732903
15833738579
15833744377
15833749199
15833754936
15833760796
15833766777
15833771294
15833776848
15833782524
15833787407
15833793388
15833798454
15833803886
15833809929
15833816093
15833824272
15833829887
15833835991
15833843376
15833849724
15833855156
15833862053
15833869438
15833875175
15833879509
15833885673
15833889579
15833896598
15833903434
15833908561
15833916008
15833920951
15833925712
15833931694
15833937797
15833942436
15833947868
15833955009
15833961723
15833967094
15833975273
15833979789
15833986869
15833990226
15833998283
15834002372
15834010368
15834014091
15834022025
15834027946
15834034354
15834039725
15834044669
15834051749
15834056815
15834062675
15834068839
15834074760
15834079459
15834085807
15834091178
15834100028
15834104911
15834111503
15834116324
15834123160
15834127921
15834135001
15834142264
15834147635
15834152091
15834159781
15834164420
15834170279
15834174552
15834181266
15834186942
15834193534
15834198294
15834204032
15834208121
15834211234
15834218985
15834221976
15834229483
15834235099
15834241324
15834244864
15834251578
15834254813
15834261160
15834266348
15834271658
15834277823
15834284598
15834289237
15834294241
15834298575
15834304678
15834309073
15834314932
15834321585
15834326834
15834331229
15834337210
15834343436
15834348257
15834352042
15834358023
15834362784
15834366263
15834374869
15834380484
15834386954
15834391104
15834399710
15834404593
15834409781
15834417898
15834422659
15834428518
15834433401
15834436636
15834443899
15834449881
15834457388
15834463919
15834468130
15834473684
15834478567
15834483328
15834488211
15834492910
15834497976
15834505545
15834510794
15834514639
15834520254
15834526358
15834530386
15834535635
15834541311
15834547109
15834552847
15834558767
15834563101
15834566274
15834573660
15834577078
15834583853
15834589712
15834595327
15834598684
15834606374
15834613027
15834621328
15834627798
15834635427
15834643179
15834651662
15834662282
15834670827
15834678396
15834688222
15834695363
15834703298
15834715444
15834722158
15834728994
15834736623
15834745473
15834752919
15834758779
15834768178
15834776235
15834784108
15834790029
15834799245
15834805837
15834811208
15834821218
15834828908
15834838124
15834845815
15834854238
15834861928
15834870412
15834875844
15834885060
15834889760
15834899464
15834908437
15834916554
15834924123
15834932301
15834937978
15834949879
15834957509
15834964833
15834972279
15834983082
15834989003
15834998463
15835005055
15835012745
15835020192
15835028981
15835037282
15835046132
15835053273
15835061634
15835068287
15835076466
15835082386
15835090199
15835099903
15835109730
15835118763
15835125599
15835134083
15835141102
15835146717
15835155567
15835163319
15835171009
15835178761
15835185230
15835193226
15835199818
15835205555
15835214100
15835222584
15835229603
15835236256
15835244556
15835250965
15835260792
15835267383
15835275928
15835283680
15835291492
15835296497
15835305958
15835312183
15835319507
15835325672
15835332996
15835343250
15835350086
15835356617
15835366565
15835371814
15835380359
15835387012
15835395740
15835403003
15835410816
15835419849
15835427906
15835434619
15835442737
15835448779
15835457141
15835467395
15835476856
15835482837
15835490650
15835499683
15835506885
15835516162
15835523303
15835532886
15835541919
15835548633
15835557056
15835564990
15835571948
15835578235
15835587390
15835594043
15835602832
15835611743
15835616565
15835624927
15835632068
15835641650
15835648974
15835658557
15835666552
15835676867
15835681506
15835690295
15835698718
15835706713
15835713427
15835720507
15835729724
15835737170
15835743212
15835752001
15835760790
15835768176
15835774523
15835781603
15835790514
15835797656
15835807055
15835815356
15835821398
15835830492
15835836840
15835842089
15835855944
15835861437
15835873095
15835878405
15835888598
15835894457
15835905688
15835913622
15835923327
15835928759
15835940233
15835947985
15835955614
15835963182
15835973680
15835979113
15835984850
15835991014
15835995409
15836000902
15836005785
15836010424
15836016100
15836021654
15836026293
15836032030
15836037340
15836042162
15836047106
15836051439
15836056932
15836061693
15836067430
15836073168
15836079698
15836081224
15836090746
15836096788
15836102342
15836108141
15836115831
15836119920
15836125352
15836129686
15836135179
15836139635
15836146043
15836150743
15836155626
15836163316
15836168138
15836175157
15836180650
15836187608
15836192125
15836197923
15836203538
15836212022
15836217149
15836221055
15836226243
15836231798
15836237901
15836241563
15836248460
15836254014
15836259691
15836265733
15836269883
15836275560
15836280809
15836286180
15836292100
15836297898
15836304551
15836310472
15836315232
15836320726
15836326707
15836332139
15836339280
15836344651
15836350755
15836354966
15836360398
15836364243
15836370713
15836374009
15836382127
15836387864
15836393662
15836399217
15836403794
15836408921
15836415635
15836418992
15836424363
15836431016
15836438340
15836443040
15836449326
15836454148
15836459458
15836463914
15836469712
15836475938
15836483201
15836489304
15836496262
15836501389
15836506516
15836512986
15836518113
15836523789
15836529343
15836533494
15836538498
15836543808
15836548203
15836552781
15836558945
15836563462
15836569626
15836574143
15836579697
15836583847
15836589402
15836594345
15836600632
15836605393
15836612107
15836615158
15836623520
15836627793
15836633957
15836637619
15836645432
15836652023
15836656296
15836660935
15836666855
15836671860
15836677414
15836682602
15836688706
15836694748
15836700851
15836705307
15836711350
15836715500
15836721725
15836725815
15836731674
15836740524
15836746628
15836753281
15836758407
15836763779
15836768173
15836774032
15836780380
15836785019
15836791244
15836796554
15836798324
15836807113
15836812179
15836818466
15836823654
15836830795
15836836960
15836841781
15836844955
15836852584
15836855941
15836863815
15836868087
15836873703
15836879562
15836885299
15836889450
15836895553
15836898666
15836905990
15836909347
15836915206
15836922836
15836930099
15836935287
15836940902
15836945724
15836951034
15836956405
15836962447
15836967941
15836974166
15836978927
15836985275
15836989791
15836997115
15837001876
15837007858
15837014693
15837020919
15837025863
15837033919
15837037948
15837045333
15837050582
15837057235
15837064742
15837072066
15837077682
15837083297
15837087447
15837092696
15837096847
15837103988
15837110640
15837118880
15837126082
15837134444
15837140426
15837148665
15837155318
15837163558
15837171614
15837180770
15837188887
15837197982
15837205550
15837213851
15837220931
15837229231
15837236922
15837246260
15837252791
15837260603
15837268172
15837278059
15837286299
15837293135
15837301558
15837309798
15837316695
15837324751
15837333296
15837342024
15837349226
15837358382
15837365523
15837373335
15837379866
15837390181
15837397627
15837408308
15837415205
15837423018
15837430952
15837439131
15837445601
15837452864
15837461287
15837468611
15837477644
15837484358
15837494123
15837502241
15837509077
15837518171
15837524031
15837533186
15837539655
15837548567
15837558027
15837565229
15837571211
15837580061
15837586469
15837594648
15837601850
15837609968
15837618452
15837627546
15837633039
15837640852
15837648664
15837656354
15837664533
15837671857
15837678266
15837688459
15837695173
15837704084
15837711957
15837718976
15837726728
15837734540
15837741681
15837746869
15837759015
15837768048
15837774884
15837783124
15837791913
15837799420
15837807660
15837817426
15837827191
15837834943
15837843854
15837852338
15837858624
15837866925
15837873456
15837882977
15837890241
15837897321
15837901532
15837911603
15837919354
15837927350
15837934979
15837943890
15837951153
15837959027
15837965436
15837973248
15837981183
15837987897
15837995648
15838001385
15838011029
15838015179
15838023968
15838030987
15838043133
15838049664
15838056927
15838063641
15838071026
15838080426
15838086468
15838094403
15838103497
15838112591
15838121563
15838129070
15838136334
15838143658
15838150372
15838159222
15838172466
15838179485
15838187664
15838194378
15838204083
15838211712
15838221294
15838229717
15838237896
15838245403
15838253399
15838259807
15838270244
15838280376
15838286297
15838293621
15838301739
15838311260
15838317730
15838328167
15838336834
15838342693
15838353130
15838359050
15838369854
15838376689
15838384990
15838394512
15838402690
15838410564
15838416973
15838425640
15838439372
15838446086
15838452617
15838459392
15838466045
15838469768
15838476299
15838484050
15838489299
15838496074
15838501506
15838507610
15838513164
15838521648
15838529704
15838541179
15838547832
15838557109
15838561626
15838567546
15838572673
15838577189
15838584758
15838589580
15838595439
15838600627
15838606730
15838611491
15838616069
15838621928
15838626994
15838631694
15838637126
15838642436
15838647136
15838653239
15838660258
15838663432
15838670390
15838675883
15838681864
15838686625
15838691325
15838697856
15838704081
15838710124
15838715922
15838721537
15838726054
15838731059
15838735941
15838740397
15838745097
15838751689
15838757853
15838763773
15838769999
15838775187
15838783305
15838786662
15838793192
15838798747
15838804057
15838810282
15838816752
15838822123
15838827555
15838834208
15838841410
15838847697
15838852640
15838857340
15838864359
15838869974
15838876688
15838881632
15838888224
15838893473
15838899882
15838904947
15838909403
15838916849
15838922220
15838928141
15838934549
15838941263
15838947550
15838953775
15838959085
15838964212
15838969522
15838976664
15838983438
15838989176
15838995829
15839000894
15839007974
15839010172
15839019815
15839025858
15839031290
15839035135
15839042215
15839046366
15839054971
15839059061
15839066080
15839071451
15839077371
15839083475
15839092996
15839096780
15839105203
15839110574
15839118570
15839125772
15839131326
15839139261
15839144144
15839149332
15839155496
15839160928
15839168069
15839173013
15839178872
15839185525
15839192056
15839199136
15839204934
15839210550
15839217080
15839222574
15839228128
15839233743
15839239480
15839245034
15839251931
15839257058
15839262002
15839267068
15839275613
15839281533
15839288797
15839294168
15839300149
15839306008
15839308328
15839317727
15839321633
15839329080
15839337625
15839343972
15839347756
15839354043
15839360635
15839366250
15839371987
15839380471
15839390054
15839395791
15839402077
15839406167
15839413613
15839417214
15839423562
15839429299
15839435647
15839441872
15839447549
15839452492
15839458535
15839465798
15839472207
15839477028
15839480752
15839489235
15839495217
15839500527
15839506997
15839511879
15839517861
15839524575
15839532204
15839538186
15839543618
15839550270
15839556191
15839563576
15839569313
15839575539
15839582314
15839590004
15839595375
15839601418
15839607216
15839613869
15839618813
15839626259
15839632973
15839641152
15839650002
15839656716
15839665199
15839673500
15839680397
15839688454
15839697975
15839705605
15839714882
15839722511
15839730019
15839739784
15839747597
15839765236
15839773414
15839781959
15839790993
15839799476
15839807350
15839815834
15839823280
15839832618
15839840675
15839849220
15839857032
15839863624
15839872718
15839879982
15839887672
15839895362
15839905311
15839911781
15839921424
15839928626
15839934669
15839945838
15839955360
15839962806
15839972816
15839981300
15839986854
15839995765
15840001868
15840011634
15840018104
15840026649
15840033790
15840042396
15840049964
15840058387
15840066138
15840074378
15840080298
15840088233
15840100196
15840108130
15840119178
15840127417
15840135047
15840144141
15840152625
15840160620
15840167334
15840175879
15840182288
15840189612
15840197791
15840207251
15840211707
15840220801
15840225257
15840234534
15840242957
15840251746
15840262244
15840268164
15840276465
15840285254
15840292578
15840301245
15840307165
15840316199
15840324438
15840331396
15840341284
15840348974
15840356726
15840364416
15840373144
15840377539
15840387060
15840391699
15840402929
15840411169
15840419226
15840427649
15840436682
15840444128
15840452429
15840460241
15840466589
15840475439
15840482153
15840491308
15840499121
15840508337
15840514746
15840523657
15840530798
15840541357
15840546911
15840557592
15840566808
15840572912
15840581213
15840589025
15840596777
15840604711
15840613073
15840621313
15840628149
15840636571
15840644201
15840653112
15840661291
15840668249
15840678075
15840684789
15840693761
15840701146
15840708837
15840716283
15840724584
15840728978
15840738439
15840748204
15840755895
15840762914
15840769933
15840777074
15840782628
15840791234
15840799596
15840808324
15840816136
15840822728
15840829198
15840836217
15840844151
15840853307
15840864781
15840873998
15840878209
15840889195
15840895055
15840902440
15840911656
15840917332
15840924657
15840930089
15840938878
15840946080
15840954014
15840960911
15840969151
15840978062
15840983372
15840991307
15840995152
15841004735
15841011509
15841018284
15841023900
15841028538
15841036534
15841040867
15841047459
15841054356
15841060093
15841064793
15841070286
15841075291
15841079685
15841084690
15841092869
15841098850
15841104588
15841108433
15841114964
15841119297
15841123875
15841129185
15841137608
15841142857
15841146946
15841152927
15841158909
15841164890
15841170628
15841178135
15841183750
15841190037
15841195225
15841200169
15841205112
15841212498
15841220676
15841228916
15841235081
15841240513
15841245273
15841250583
15841256565
15841261448
15841267429
15841273350
15841276768
15841283664
15841287021
15841293918
15841298679
15841304722
15841310337
15841315342
15841320285
15841327060
15841332248
15841337436
15841342380
15841348545
15841356113
15841362033
15841365512
15841374118
15841377292
15841385227
15841390171
15841394199
15841404392
15841408908
15841414157
15841422824
15841428195
15841433261
15841440891
15841446262
15841451572
15841458347
15841462863
15841467868
15841473850
15841479160
15841483676
15841488986
15841497287
15841502353
15841507114
15841513827
15841518222
15841523654
15841528903
15841533908
15841540622
15841546298
15841550387
15841555758
15841561008
15841566623
15841573153
15841578402
15841585238
15841592746
15841597567
15841603244
15841609591
15841615329
15841620028
15841626498
15841634188
15841639376
15841643466
15841649997
15841655917
15841662020
15841666476
15841672579
15841678256
15841684481
15841690341
15841695040
15841700900
15841707003
15841711520
15841717013
15841724276
15841731417
15841738131
15841744723
15841749239
15841753451
15841760348
15841766695
15841773592
15841778353
15841783541
15841788607
15841792696
15841801730
15841811800
15841819918
15841828158
15841838778
15841847811
15841856356
15841863558
15841870028
15841874849
15841888582
15841899569
15841908053
15841915621
15841922762
15841930696
15841938814
15841947664
15841956209
15841965181
15841971407
15841978426
15841985994
15841997164
15842006136
15842014070
15842022005
15842029939
15842038118
15842048067
15842054659
15842064302
15842074190
15842088167
15842096895
15842103853
15842110323
15842120882
15842128999
15842137239
15842145601
15842154695
15842162263
15842168855
15842179414
15842188447
15842196321
15842204255
15842218599
15842227632
15842240266
15842248689
15842260163
15842271028
15842280671
15842290925
15842300996
15842310761
15842321870
15842331513
15842337251
15842350617
15842362702
15842370576
15842384309
15842393342
15842402375
15842413300
15842423798
15842434052
15842442963
15842453705
15842462311
15842474824
15842486237
15842496369
15842509797
15842520417
15842533051
15842542817
15842557343
15842567597
15842577118
15842585114
15842597626
15842603485
15842615082
15842624909
15842634247
15842644745
15842652191
15842662445
15842671295
15842685883
15842695038
15842703339
15842711212
15842720428
15842730438
15842738861
15842749420
15842760284
15842769317
15842778656
15842788055
15842797943
15842805511
15842817108
15842828033
15842837860
15842848602
15842858428
15842865814
15842876190
15842886321
15842896453
15842907623
15842915496
15842927154
15842934966
15842947845
15842955962
15842965179
15842976043
15842986175
15842996673
15843004424
15843018340
15843024139
15843037322
15843047454
15843056731
15843067962
15843078216
15843087066
15843098662
15843108550
15843118132
15843127593
15843137725
15843146941
15843156340
15843165740
15843178008
15843186003
15843197905
15843207121
15843216338
15843227690
15843236723
15843247649
15843258879
15843266631
15843275114
15843281889
15843289030
15843296538
15843304472
15843310393
15843318510
15843326628
15843333342
15843340727
15843346770
15843359221
15843368132
15843375273
15843382597
15843391630
15843397184
15843404509
15843412321
15843418547
15843424772
15843430632
15843436918
15843444487
15843451689
15843458342
15843465910
15843471586
15843477690
15843484342
15843490934
15843497465
15843503568
15843511381
15843516569
15843524381
15843530058
15843536405
15843542692
15843550321
15843556730
15843563139
15843569242
15843576078
15843584379
15843591093
15843600492
15843604826
15843613004
15843619596
15843626920
15843635160
15843642728
15843648343
15843656156
15843667325
15843672880
15843680448
15843686918
15843694181
15843702543
15843709562
15843715970
15843723722
15843728910
15843735257
15843741361
15843746122
15843752286
15843758023
15843764615
15843770352
15843777005
15843782254
15843789212
15843793790
15843800199
15843803922
15843812650
15843815946
15843822659
15843827664
15843834317
15843840726
15843846219
15843851773
15843856717
15843863370
15843867093
15843874112
15843877896
15843884610
15843889981
15843893948
15843898831
15843904080
15843910062
15843916348
15843920315
15843929898
15843936185
15843941678
15843951443
15843957608
15843967740
15843974270
15843980923
15843986783
15843992459
15843996853
15844003384
15844007351
15844014859
15844020901
15844025906
15844030545
15844035794
15844041470
15844046841
15844051480
15844056423
15844061550
15844065457
15844070584
15844076077
15844077847
15844086025
15844091397
15844096646
15844101345
15844106960
15844112881
15844117581
15844123623
15844128384
15844135952
15844141079
15844147427
15844152309
15844159023
15844164150
15844168118
15844175747
15844180080
15844188503
15844191921
15844200466
15844204922
15844211269
15844217312
15844225368
15844229641
15844237636
15844241237
15844249111
15844252407
15844258877
15844261806
15844268337
15844276211
15844282375
15844287441
15844293728
15844297207
15844303737
15844310085
15844315578
15844321132
15844326931
15844332668
15844339016
15844343776
15844347927
15844353115
15844360317
15844365810
15844372707
15844378322
15844386379
15844391994
15844397426
15844402675
15844409999
15844413844
15844420619
15844426479
15844431972
15844437526
15844446010
15844452052
15844458522
15844463222
15844468898
15844475917
15844481471
15844487697
15844489955
15844498744
15844503200
15844512233
15844519191
15844525416
15844533351
15844540370
15844544826
15844552211
15844558680
15844567347
15844574550
15844580775
15844585963
15844592799
15844597804
15844602443
15844608302
15844613368
15844618800
15844625087
15844629664
15844637049
15844641932
15844647914
15844653773
15844658961
15844665919
15844672511
15844677943
15844681910
15844689662
15844693812
15844699915
15844703517
15844711146
15844715540
15844724207
15844728236
15844735560
15844740382
15844747279
15844752467
15844757899
15844765467
15844772120
15844777308
15844782435
15844787012
15844794398
15844799525
15844805262
15844812159
15844818506
15844823572
15844831629
15844838282
15844844019
15844848414
15844851954
15844859949
15844868860
15844873865
15844880396
15844885401
15844892298
15844900049
15844909204
15844915491
15844925745
15844936243
15844946802
15844956568
15844965174
15844972010
15844980676
15844987451
15844996179
15845005029
15845007776
15845020654
15845028589
15845037561
15845046106
15845053186
15845062402
15845069238
15845074060
15845085046
15845090601
15845101526
15845106836
15845119104
15845126489
15845134363
15845142297
15845149194
15845154626
15845165063
15845170617
15845181421
15845188928
15845197107
15845204004
15845210168
15845218469
15845228295
15845241540
15845252465
15845266259
15845275964
15845284448
15845291162
15845301049
15845307824
15845315759
15845322411
15845330285
15845337121
15845345605
15845352685
15845362756
15845370629
15845377709
15845387231
15845396508
15845401330
15845412194
15845420251
15845427331
15845434411
15845442834
15845449425
15845458519
15845465233
15845473046
15845479760
15845487572
15845494286
15845504113
15845512169
15845518212
15845526146
15845534325
15845539086
15845550621
15845559471
15845567101
15845573143
15845581505
15845588646
15845594139
15845603417
15845614586
15845621483
15845627464
15845636559
15845642479
15845650841
15845659996
15845666893
15845675316
15845685509
15845694054
15845701805
15845709495
15845719566
15845727012
15845734459
15845741905
15845749534
15845758018
15845765831
15845773216
15845781212
15845789390
15845797447
15845806785
15845812400
15845821922
15845827964
15845835716
15845843650
15845853477
15845862754
15845866966
15845876426
15845884971
15845893028
15845900291
15845911277
15845918784
15845925987
15845933250
15845938071
15845950584
15845957542
15845967673
15845976218
15845990440
15845996299
15846006003
15846012534
15846020347
15846027976
15846037803
15846042075
15846051841
15846059104
15846066245
15846070517
15846080771
15846089743
15846097434
15846103476
15846110862
15846118491
15846125876
15846134238
15846140830
15846151694
15846159751
15846167868
15846174521
15846181662
15846192404
15846199851
15846208701
15846215109
15846223593
15846228903
15846235129
15846242392
15846248801
15846254050
15846262350
15846265280
15846274191
15846279318
15846285788
15846291281
15846299032
15846305990
15846311423
15846318869
15846325339
15846331259
15846337362
15846343588
15846348715
15846354330
15846357626
15846364767
15846370199
15846376120
15846381308
15846387472
15846392660
15846398458
15846404379
15846409140
15846415304
15846420919
15846428366
15846434530
15846439047
15846445272
15846450460
15846456808
15846464132
15846470114
15846475790
15846480123
15846485433
15846491537
15846498007
15846503683
15846511251
15846514913
15846521200
15846526815
15846532858
15846536520
15846544698
15846550253
15846557577
15846562337
15846568441
15846574667
15846581197
15846588155
15846594198
15846602193
15846608053
15846613973
15846621908
15846627950
15846632589
15846638753
15846646261
15846652791
15846657918
15846664571
15846669637
15846675130
15846679830
15846686544
15846692159
15846698629
15846705526
15846711507
15846718404
15846723470
15846729451
15846735799
15846743428
15846749288
15846754354
15846761128
15846765889
15846772115
15846778035
15846784139
15846789632
15846796773
15846801839
15846805562
15846815389
15846819417
15846826741
15846830647
15846838155
15846844563
15846850362
15846855367
15846863545
15846867574
15846876424
15846883260
15846890279
15846895467
15846905415
15846909016
15846916707
15846922688
15846928425
15846931660
15846939473
15846942952
15846950520
15846956502
15846961934
15846965230
15846972249
15846978474
15846984211
15846991597
15846998433
15847004658
15847009358
15847015644
15847022358
15847026142
15847033650
15847040425
15847045491
15847050679
15847057270
15847062336
15847070393
15847074177
15847081806
15847088825
15847095417
15847099079
15847106281
15847113056
15847119221
15847123737
15847131062
15847136372
15847143391
15847148212
15847155537
15847161457
15847166340
15847171284
15847177570
15847183430
15847189472
15847195515
15847202778
15847211506
15847216999
15847224567
15847230915
15847236713
15847243549
15847248737
15847253376
15847257953
15847264850
15847270099
15847276264
15847281818
15847287555
15847292560
15847299091
15847303852
15847309589
15847314594
15847321857
15847328327
15847334674
15847339130
15847344623
15847348163
15847356159
15847361408
15847367633
15847374408
15847379047
15847386127
15847391071
15847394611
15847403156
15847410663
15847420917
15847430438
15847438739
15847445026
15847452960
15847461749
15847467425
15847476153
15847482379
15847491839
15847500690
15847509112
15847516253
15847525226
15847531268
15847538959
15847548358
15847555682
15847564227
15847572528
15847579181
15847586810
15847595660
15847604327
15847611468
15847621600
15847629168
15847636126
15847642779
15847652911
15847657488
15847667620
15847677813
15847685992
15847693926
15847700274
15847709246
15847714983
15847725359
15847733233
15847741717
15847748614
15847757281
15847764544
15847769854
15847779864
15847787737
15847797381
15847804644
15847812700
15847820330
15847825823
15847834856
15847844805
15847853228
15847860613
15847867754
15847874468
15847882891
15847892595
15847902056
15847911089
15847922563
15847930742
15847936968
15847945940
15847954424
15847963396
15847971575
15847979936
15847986101
15847994219
15848001909
15848008196
15848017473
15848024797
15848032915
15848041277
15848046709
15848054826
15848062639
15848069597
15848081377
15848089067
15848096574
15848104265
15848111406
15848117509
15848124101
15848130266
15848140825
15848149797
15848155656
15848165239
15848171525
15848178300
15848185930
15848198686
15848205033
15848212419
15848222978
15848229753
15848242936
15848252152
15848260209
15848268632
15848275285
15848283524
15848293107
15848300797
15848310807
15848320878
15848328263
15848337601
15848345780
15848354447
15848361527
15848367448
15848379960
15848387345
15848396561
15848404313
15848414139
15848419755
15848431534
15848437272
15848448746
15848454545
15848466141
15848472245
15848483231
15848493119
15848500748
15848508927
15848519364
15848525589
15848537369
15848545365
15848552323
15848561722
15848568558
15848578507
15848586197
15848592850
15848602066
15848608597
15848614761
15848626358
15848634964
15848641556
15848649979
15848659500
15848664810
15848675613
15848684769
15848692581
15848700271
15848710342
15848718155
15848730545
15848740005
15848748489
15848753555
15848763748
15848770462
15848774978
15848779556
15848786026
15848790969
15848797988
15848801712
15848808914
15848813797
15848820510
15848825027
15848830703
15848835586
15848842300
15848847244
15848853530
15848858474
15848864700
15848869644
15848875991
15848881362
15848886978
15848892898
15848898452
15848903518
15848910903
15848915176
15848920852
15848927932
15848932265
15848938857
15848942458
15848950698
15848956313
15848961684
15848966689
15848973708
15848979507
15848986037
15848989638
15848997817
15849002639
15849008010
15849013015
15849018874
15849027480
15849033095
15849038894
15849044875
15849050612
15849057143
15849061904
15849067336
15849072646
15849079238
15849085097
15849091262
15849097121
15849103774
15849107985
15849116347
15849123976
15849129531
15849136305
15849141188
15849146926
15849151686
15849155226
15849165541
15849171218
15849177443
15849182326
15849188429
15849192397
15849200942
15849205031
15849212721
15849218642
15849226210
15849229811
15849236647
15849242018
15849247267
15849252394
15849263808
15849268568
15849274489
15849278578
15849284743
15849290175
15849299208
15849304823
15849312514
15849322828
15849330275
15849335768
15849340590
15849348158
15849354445
15849359572
15849364576
15849367567
15849373549
15849378126
15849383253
15849388929
15849394361
15849399855
15849405531
15849411329
15849416456
15849422499
15849429151
15849437086
15849442762
15849448988
15849455030
15849462477
15849468824
15849474745
15849479749
15849485243
15849490553
15849495069
15849500684
15849506056
15849511610
15849516859
15849521131
15849526929
15849531263
15849536024
15849545118
15849551588
15849555433
15849562025
15849567579
15849572950
15849576551
15849583570
15849587903
15849592115
15849597242
15849602308
15849606580
15849610425
15849616712
15849621290
15849627759
15849633252
15849636487
15849643201
15849648877
15849654554
15849659925
15849663526
15849668226
15849672986
15849674512
15849682752
15849688672
15849695691
15849701856
15849706617
15849711316
15849715467
15849721814
15849726209
15849732251
15849737256
15849744031
15849748120
15849753308
15849757031
15849763318
15849768567
15849774060
15849778516
15849788159
15849795239
15849801953
15849807935
15849816480
15849821973
15849827954
15849833325
15849837354
15849844128
15849849805
15849855725
15849861096
15849866101
15849869885
15849875012
15849881726
15849886731
15849892224
15849898816
15849904614
15849909924
15849914197
15849920483
15849927563
15849933606
15849939709
15849945446
15849950573
15849956921
15849962048
15849969006
15849974377
15849979687
15849986889
15849993481
15849996777
15850003002
15850006298
15850012280
15850017407
15850022900
15850030468
15850036144
15850040661
15850045971
15850054028
15850058300
15850064587
15850070080
15850073498
15850083447
15850086987
15850093884
15850099377
15850104748
15850108410
15850116650
15850122875
15850127453
15850133373
15850139477
15850143444
15850151806
15850157299
15850162304
15850169933
15850174450
15850181286
15850185741
15850193188
15850198498
15850204357
15850209911
15850218639
15850223400
15850229198
15850236095
15850243236
15850249096
15850255809
15850263439
15850269603
15850276073
15850282299
15850288036
15850293651
15850301281
15850307811
15850313304
15850318676
15850325267
15850331127
15850336559
15850344066
15850353465
15850359874
15850364452
15850373851
15850379833
15850386119
15850391918
15850398204
15850404674
15850408763
15850415294
15850419811
15850425975
15850430370
15850436107
15850442760
15850449840
15850454906
15850461253
15850467418
15850471812
15850477733
15850483836
15850489512
15850495067
15850499644
15850505931
15850511424
15850518321
15850525584
15850531505
15850538524
15850543895
15850550609
15850556102
15850562938
15850568370
15850572947
15850579539
15850586558
15850591136
15850597666
15850603221
15850608165
15850614939
15850621592
15850626658
15850636424
15850642832
15850648936
15850655955
15850660655
15850664683
15850673533
15850677561
15850684580
15850688365
15850696055
15850700083
15850708140
15850713633
15850719126
15850724558
15850732188
15850740183
15850746592
15850751475
15850757761
15850762461
15850768259
15850774485
15850779917
15850786814
15850791941
15850796580
15850802561
15850807932
15850814951
15850820688
15850826670
15850831492
15850839243
15850845957
15850853769
15850858164
15850862864
15850870005
15850875376
15850882334
15850888620
15850894907
15850901377
15850908091
15850912729
15850918894
15850924631
15850928476
15850936167
15850939951
15850947336
15850951669
15850961008
15850964914
15850971445
15850976999
15850984079
15850995798
15851001657
15851006784
15851011301
15851014658
15851022409
15851026010
15851033517
15851037424
15851045419
15851052072
15851057748
15851063119
15851068918
15851075387
15851081125
15851089914
15851094613
15851099313
15851106149
15851113351
15851115732
15851122812
15851126474
15851134897
15851141916
15851147592
15851153817
15851159799
15851164987
15851171273
15851177499
15851183847
15851190683
15851196786
15851201852
15851207833
15851213693
15851220101
15851224679
15851230660
15851237863
15851240121
15851248666
15851252450
15851260201
15851268563
15851274301
15851280587
15851286385
15851291634
15851296944
15851302377
15851309457
15851314339
15851320748
15851326058
15851333138
15851338692
15851345650
15851350533
15851357003
15851362618
15851368355
15851374520
15851379952
15851387032
15851393624
15851400826
15851407357
15851412789
15851419320
15851425667
15851430367
15851435921
15851443734
15851449349
15851455452
15851457833
15851466744
15851470711
15851477852
15851482918
15851490792
15851495064
15851504952
15851509774
15851517037
15851522835
15851529305
15851534981
15851541084
15851548348
15851550850
15851559273
15851563362
15851572640
15851577767
15851584786
15851590645
15851596748
15851611641
15851616890
15851624458
15851632210
15851639778
15851645393
15851651436
15851657173
15851664009
15851670051
15851675239
15851681648
15851687630
15851693489
15851699470
15851705086
15851711494
15851716072
15851721443
15851726875
15851734077
15851739937
15851745796
15851752754
15851759102
15851764351
15851769538
15851777473
15851782844
15851787605
15851792976
15851800483
15851805915
15851811225
15851818550
15851824104
15851830024
15851834907
15851841072
15851849067
15851854621
15851860114
15851865119
15851871467
15851878303
15851884284
15851889045
15851895332
15851901984
15851911262
15851916206
15851922614
15851927863
15851933540
15851938483
15851945380
15851951240
15851957831
15851962592
15851966193
15851973945
15851979804
15851986335
15851991706
15851998603
15852005805
15852011237
15852015998
15852021979
15852029364
15852034980
15852039618
15852043280
15852051215
15852059150
15852065192
15852069403
15852076606
15852081977
15852087958
15852094428
15852101020
15852108100
15852113593
15852119574
15852125250
15852131415
15852141791
15852148871
15852155219
15852161749
15852169806
15852174140
15852179511
15852184454
15852190253
15852196600
15852202948
15852208319
15852216803
15852221869
15852231818
15852240240
15852247931
15852256110
15852263556
15852267401
15852275213
15852278570
15852284308
15852287115
15852293768
15852300421
15852304754
15852310431
15852315863
15852321417
15852325506
15852330389
15852338141
15852343573
15852348822
15852355597
15852360113
15852364325
15852369818
15852374090
15852379644
15852384954
15852390448
15852394964
15852401495
15852406866
15852411566
15852416815
15852422796
15852428167
15852432562
15852437994
15852442388
15852447881
15852453130
15852459417
15852466070
15852472173
15852477972
15852483282
15852492193
15852497381
15852502569
15852510503
15852515752
15852521551
15852527898
15852533514
15852539312
15852544866
15852550664
15852557378
15852563055
15852568792
15852575323
15852582830
15852587835
15852593145
15852599676
15852601812
15852610418
15852616399
15852621770
15852625982
15852634832
15852639409
15852647954
15852651921
15852659734
15852663640
15852670476
15852676641
15852683538
15852688848
15852694097
15852699712
15852706914
15852712407
15852719304
15852723882
15852730779
15852736394
15852740483
15852750737
15852755620
15852762090
15852768315
15852773808
15852778447
15852787175
15852792668
15852798222
15852804936
15852812627
15852816594
15852823979
15852829961
15852837285
15852842839
15852848454
15852854619
15852860966
15852865788
15852871220
15852876164
15852881718
15852886784
15852894414
15852898991
15852905583
15852912236
15852917790
15852924077
15852928654
15852934269
15852938969
15852945439
15852951603
15852958195
15852963871
15852969731
15852971928
15852980107
15852984135
15852993290
15853000187
15853005192
15853012638
15853018254
15853023747
15853031498
15853037235
15853043034
15853048710
15853055973
15853061833
15853068485
15853073673
15853081608
15853086247
15853093937
15853099796
15853107853
15853114689
15853120182
15853128544
15853135868
15853140140
15853147465
15853152897
15853159244
15853164310
15853172001
15853176700
15853183414
15853189579
15853196537
15853202152
15853208133
15853214420
15853221073
15853225589
15853230838
15853237308
15853243412
15853250675
15853258243
15853267826
15853271976
15853279850
15853285160
15853290103
15853297428
15853304752
15853309757
15853316043
15853321781
15853327030
15853333927
15853340274
15853347171
15853354251
15853359989
15853363345
15853371951
15853375797
15853383365
15853389346
15853395389
15853401736
15853406985
15853411868
15853419986
15853426761
15853432376
15853436648
15853443912
15853451053
15853459476
15853463199
15853470645
15853476382
15853482181
15853488650
15853494693
15853498294
15853505374
15853508609
15853516177
15853522220
15853527896
15853533206
15853540225
15853545291
15853551760
15853558718
15853563113
15853569705
15853574527
15853580325
15853586978
15853593203
15853599429
15853604434
15853610476
15853617495
15853624758
15853630190
15853638552
15853644229
15853651370
15853658022
15853663271
15853670535
15853676211
15853683779
15853692446
15853738161
15853742983
15853747011
15853750918
15853754397
15853757876
15853760866
15853766421
15853770205
15853773012
15853776125
15853780276
15853783938
15853788088
15853791262
15853796694
15853803408
15853807131
15853813479
15853817873
15853822878
15853829348
15853833925
15853838991
15853842958
15853848513
15853853334
15853856997
15853862429
15853868898
15853874514
15853878359
15853884706
15853889467
15853894472
15853898439
15853905580
15853909365
15853913576
15853918520
15853924013
15853928774
15853934755
15853940676
15853945314
15853951601
15853956484
15853962587
15853968813
15853973390
15853980165
15853985231
15853990419
15853996217
15854002382
15854007265
15854012575
15854017763
15854022462
15854027833
15854033266
15854038637
15854044313
15854049684
15854055116
15854060487
15854065675
15854070985
15854076051
15854080140
15854084535
15854089296
15854095949
15854100038
15854105226
15854109620
15854114625
15854118959
15854124513
15854129762
15854134950
15854140321
15854145143
15854149415
15854154176
15854159059
15854165467
15854170594
15854173768
15854179017
15854184632
15854189820
15854195375
15854200196
15854207093
15854213746
15854220033
15854224244
15854232484
15854238038
15854245179
15854253297
15854259095
15854264283
15854268983
15854275575
15854280763
15854285462
15854290223
15854294617
15854299073
15854305299
15854308900
15854314881
15854319703
15854325074
15854331055
15854335023
15854340455
15854346192
15854351136
15854356629
15854361939
15854367615
15854370972
15854378602
15854382996
15854387208
15854393128
15854400574
15854406434
15854411683
15854415955
15854422303
15854428101
15854433411
15854439087
15854445008
15854451416
15854458191
15854461914
15854469422
15854475464
15854480103
15854488404
15854495667
15854502136
15854507935
15854511963
15854517884
15854522583
15854528748
15854533447
15854540711
15854545288
15854551697
15854555725
15854560486
15854568237
15854573120
15854577576
15854584168
15854589722
15854594849
15854600952
15854606201
15854610474
15854617248
15854622559
15854628113
15854633789
15854638855
15854643738
15854650146
15854655395
15854662109
15854669922
15854674560
15854679382
15854685547
15854690490
15854694946
15854701416
15854706726
15854712097
15854717895
15854723327
15854729797
15854735107
15854739685
15854744995
15854752502
15854759765
15854767089
15854773132
15854778869
15854783935
15854790832
15854795349
15854800048
15854805419
15854809020
15854815551
15854821166
15854826721
15854831970
15854837280
15854844787
15854849853
15854855407
15854860534
15854865722
15854870910
15854876952
15854882018
15854886047
15854892455
15854897643
15854903197
15854908630
15854914001
15854920226
15854926391
15854931274
15854936584
15854942199
15854948363
15854952148
15854958983
15854963805
15854970824
15854976195
15854982238
15854987670
15854994506
15854998778
15855006286
15855011779
15855019042
15855025329
15855032958
15855037902
15855044005
15855048339
15855054015
15855060973
15855066527
15855071776
15855077086
15855082396
15855087889
15855092406
15855097777
15855103697
15855108031
15855114928
15855119139
15855126097
15855131102
15855137023
15855146422
15855152464
15855157530
15855163268
15855168517
15855174071
15855180968
15855187193
15855194029
15855200438
15855206541
15855212706
15855220030
15855224364
15855231627
15855237181
15855243468
15855249510
15855255003
15855261107
15855268675
15855274718
15855279722
15855285521
15855292662
15855298643
15855304869
15855309202
15855316160
15855323423
15855328795
15855335997
15855343077
15855353880
15855358885
15855366392
15855371031
15855376707
15855381224
15855387693
15855395811
15855401121
15855406065
15855410887
15855416502
15855422849
15855428709
15855434324
15855440367
15855445677
15855451231
15855457639
15855463255
15855468809
15855474058
15855479307
15855486326
15855490781
15855496397
15855502683
15855507932
15855513364
15855519529
15855525571
15855533018
15855538755
15855545286
15855551267
15855557493
15855561887
15855568845
15855574033
15855581724
15855586789
15855592771
15855599607
15855603940
15855611997
15855619321
15855624936
15855630491
15855637449
15855641294
15855648374
15855653196
15855660642
15855664792
15855671384
15855702817
15855708493
15855715024
15855721738
15855727475
15855733273
15855738522
15855746518
15855752255
15855756772
15855764584
15855770383
15855776120
15855780392
15855788083
15855794919
15855800534
15855806271
15855813107
15855819150
15855825619
15855835995
15855840878
15855848447
15855854977
15855861447
15855867184
15855872861
15855878537
15855884640
15855889706
15855895016
15855901486
15855909909
15855914242
15855920651
15855926571
15855933163
15855938473
15855943234
15855950314
15855955990
15855960080
15855964718
15855968930
15855972958
15855979183
15855986203
15855992428
15855997616
15856003231
15856007809
15856012325
15856017147
15856022762
15856030514
15856035519
15856040646
15856045223
15856050167
15856055233
15856060360
15856066586
15856072384
15856077633
15856082699
15856088192
15856093319
15856098385
15856103146
15856108456
15856113460
15856120052
15856125362
15856129513
15856135921
15856141292
15856145992
15856152035
15856158993
15856165462
15856171444
15856175838
15856182613
15856187435
15856192867
15856198543
15856204891
15856210506
15856215694
15856220272
15856224727
15856229427
15856235408
15856243221
15856248836
15856254024
15856258358
15856263912
15856270443
15856276363
15856281612
15856287532
15856291683
15856298458
15856303157
15856308223
15856313716
15856319515
15856324275
15856330257
15856336788
15856342281
15856348323
15856351680
15856357417
15856361995
15856367671
15856376643
15856381465
15856386104
15856391841
15856398860
15856403926
15856408443
15856414546
15856420344
15856426448
15856431636
15856438289
15856443538
15856449214
15856455928
15856462153
15856469905
15856475703
15856483760
15856488704
15856493098
15856499568
15856504390
15856508235
15856514888
15856521113
15856525203
15856530268
15856534907
15856540217
15856545527
15856552180
15856557612
15856562983
15856568598
15856573542
15856578547
15856583979
15856589472
15856595576
15856601130
15856606562
15856612116
15856617121
15856622981
15856628108
15856633479
15856639643
15856645258
15856651240
15856656611
15856661250
15856666621
15856673335
15856677241
15856683405
15856691096
15856697321
15856702875
15856708857
15856713190
15856719721
15856725764
15856731989
15856738581
15856743281
15856748835
15856753535
15856758600
15856764399
15856769831
15856776484
15856783320
15856787714
15856792902
15856798578
15856804438
15856810541
15856815607
15856819269
15856826227
15856833673
15856837702
15856844172
15856851374
15856858393
15856862787
15856868708
15856875788
15856881708
15856887323
15856891535
15856897150
15856903070
15856908747
15856913996
15856921564
15856928583
15856932489
15856938410
15856943475
15856949579
15856956537
15856961115
15856969537
15856976251
15856982111
15856987421
15856991022
15856998407
15857002130
15857009210
15857020746
15857026056
15857036371
15857042657
15857048517
15857053827
15857059503
15857065179
15857070917
15857075860
15857080011
15857085016
15857090265
15857095025
15857099603
15857107171
15857112787
15857118768
15857125360
15857129388
15857134149
15857139642
15857145990
15857150628
15857156060
15857160211
15857165765
15857169549
15857175775
15857182550
15857187676
15857193658
15857197625
15857203790
15857208245
15857213067
15857218377
15857224175
15857229119
15857233819
15857237664
15857243218
15857247796
15857255120
15857261102
15857267449
15857273614
15857278497
15857284295
15857287835
15857293328
15857298211
15857303948
15857309380
15857314507
15857319817
15857325555
15857329339
15857334344
15857340142
15857344048
15857351983
15857355950
15857362786
15857368340
15857373040
15857380242
15857385552
15857392510
