15893321312
15893327599
15893332665
15893337425
15893342796
15893346947
15893352318
15893357628
15893363365
15893368065
15893372642
15893377037
15893381370
15893386864
15893393211
15893398277
15893403892
15893409813
15893416588
15893423424
15893428612
15893436180
15893441734
15893447654
15893453758
15893458885
15893465660
15893471641
15893478172
15893482933
15893489647
15893494896
15893502037
15893507896
15893514122
15893521202
15893526756
15893533287
15893538841
15893546653
15893554405
15893558982
15893566856
15893573020
15893578758
15893584190
15893589561
15893595664
15893601219
15893606773
15893612571
15893618613
15893625205
15893629295
15893636619
15893639243
15893649253
15893655723
15893662437
15893668052
15893673118
15893679587
15893686851
15893691306
15893697715
15893703208
15893709861
15893715476
15893722434
15893728476
15893734397
15893740073
15893747397
15893752585
15893757956
15893765342
15893771506
15893776755
15893783347
15893790732
15893795493
15893802756
15893807456
15893814719
15893820883
15893827719
15893834189
15893840842
15893847312
15893853903
15893860251
15893867026
15893873496
15893879843
15893885764
15893893332
15893899008
15893905234
15893910971
15893916281
15893925009
15893929160
15893939352
15893945578
15893950766
15893956015
15893963156
15893969687
15893976340
15893982687
15893988058
15893993735
15894000571
15894006064
15894012900
15894019003
15894025168
15894031271
15894037985
15894044211
15894051108
15894057455
15894064657
15894070761
15894078817
15894085165
15894092916
15894099081
15894105368
15894112265
15894118185
15894124105
15894130209
15894138327
15894145285
15894151876
15894158163
15894164816
15894171835
15894177145
15894185629
15894193990
15894201681
15894206625
15894214254
15894221273
15894227071
15894232809
15894240560
15894246542
15894253194
15894257955
15894264608
15894270528
15894277242
15894282735
15894289815
15894296163
15894303182
15894310201
15894315023
15894322774
15894330709
15894337362
15894343953
15894350057
15894356588
15894362691
15894368306
15894374166
15894380147
15894387349
15894394063
15894401754
15894408040
15894413777
15894419332
15894427144
15894432759
15894441976
15894447835
15894457295
15894462728
15894469747
15894477071
15894484029
15894491719
15894498555
15894506307
15894515279
15894520161
15894528828
15894535481
15894545918
15894551595
15894560261
15894566609
15894573689
15894580586
15894588460
15894595479
15894602376
15894610188
15894617085
15894626118
15894633626
15894640645
15894648030
15894654683
15894661580
15894668965
15894674458
15894683735
15894691792
15894699177
15894706318
15894713826
15894721150
15894726521
15894735127
15894742085
15894752888
15894757038
15894766560
15894774738
15894780842
15894786030
15894793293
15894799519
15894805561
15894810993
15894816181
15894821064
15894827656
15894831867
15894839191
15894844685
15894852070
15894859699
15894867145
15894872944
15894878315
15894883747
15894888630
15894896259
15894901935
15894908771
15894915058
15894921345
15894927204
15894931476
15894937702
15894942463
15894949238
15894955219
15894959552
15894964557
15894970478
15894975238
15894980854
15894987506
15894995563
15895000568
15895007160
15895013568
15895018390
15895025287
15895030902
15895036029
15895042255
15895047565
15895052387
15895057514
15895063251
15895068988
15895076129
15895081134
15895083637
15895090778
15895094928
15895099567
15895105243
15895110187
15895114887
15895121051
15895124591
15895131061
15895136493
15895141254
15895147296
15895152545
15895159076
15895164569
15895169696
15895175983
15895180499
15895185992
15895190814
15895198199
15895203998
15895209491
15895214618
15895220477
15895226520
15895232074
15895237384
15895242877
15895250201
15895254840
15895260150
15895265704
15895272113
15895278277
15895282733
15895287127
15895294329
15895301165
15895306109
15895312396
15895317889
15895323138
15895328387
15895335589
15895341571
15895347491
15895354571
15895360064
15895365618
15895371295
15895377520
15895382281
15895389300
15895395770
15895401812
15895407244
15895413409
15895418658
15895424822
15895430010
15895436358
15895442522
15895449908
15895455096
15895461687
15895466143
15895472063
15895477984
15895485674
15895491106
15895497149
15895504046
15895508562
15895515093
15895522051
15895527300
15895532732
15895537798
15895544573
15895549944
15895556047
15895561785
15895567217
15895573504
15895576738
15895585283
15895594744
15895601335
15895607927
15895614214
15895619829
15895624712
15895629839
15895635454
15895641069
15895647966
15895654192
15895659868
15895662493
15895669389
15895673540
15895679460
15895686784
15895692522
15895697466
15895703752
15895708635
15895715105
15895720964
15895725847
15895731706
15895737627
15895744279
15895749223
15895754594
15895761125
15895766130
15895771379
15895776994
15895782609
15895789018
15895793901
15895805681
15895811296
15895816911
15895821855
15895827409
15895835527
15895840165
15895844743
15895852311
15895856584
15895862687
15895868486
15895874406
15895879472
15895887223
15895892167
15895897355
15895904069
15895909623
15895914689
15895919328
15895927323
15895934342
15895939958
15895946244
15895951554
15895956254
15895965104
15895972550
15895980363
15895987748
15895996171
15896004166
15896012223
15896018937
15896026322
15896032365
15896039689
15896049515
15896057511
15896064530
15896074174
15896080521
15896089005
15896096146
15896104447
15896111710
15896120560
15896127945
15896136124
15896142960
15896148880
15896159012
15896164994
15896172623
15896181961
15896190018
15896194107
15896205216
15896213578
15896221085
15896228348
15896236344
15896244705
15896253128
15896257706
15896268448
15896274796
15896283402
15896289993
15896297928
15896307755
15896316483
15896323257
15896332840
15896338943
15896346817
15896353714
15896361893
15896369705
15896377701
15896387100
15896394729
15896402054
15896407608
15896417251
15896424087
15896432083
15896439712
15896448074
15896456009
15896463577
15896471023
15896477127
15896486038
15896493545
15896500686
15896509292
15896518692
15896526199
15896532241
15896539382
15896549148
15896555435
15896565322
15896575271
15896581924
15896588455
15896597427
15896604995
15896611953
15896618484
15896626418
15896634475
15896644424
15896649551
15896659011
15896665420
15896672683
15896679885
15896687942
15896698928
15896705276
15896713149
15896720656
15896727004
15896734816
15896742873
15896750747
15896760756
15896766921
15896776381
15896784194
15896790602
15896799025
15896806899
15896814528
15896824721
15896832289
15896841750
15896848403
15896857802
15896864028
15896874281
15896880751
15896890883
15896897780
15896907423
15896914015
15896923476
15896929823
15896939528
15896945875
15896956190
15896965407
15896972243
15896979567
15896989516
15896996840
15897004286
15897011732
15897021864
15897028700
15897038527
15897045912
15897053297
15897061659
15897069838
15897078260
15897086378
15897094679
15897104444
15897112562
15897120924
15897129713
15897137892
15897145582
15897153639
15897160780
15897169325
15897176893
15897184583
15897192518
15897200086
15897207838
15897217786
15897223096
15897232435
15897238294
15897248426
15897253980
15897262708
15897269178
15897277296
15897287671
15897294080
15897302015
15897310010
15897317151
15897326124
15897332654
15897342664
15897352063
15897359449
15897366162
15897370069
15897375501
15897381971
15897386548
15897392469
15897397534
15897403455
15897408094
15897412732
15897418103
15897425489
15897430310
15897436414
15897443616
15897449292
15897454175
15897459668
15897465283
15897471814
15897477551
15897483716
15897490613
15897495801
15897500073
15897505322
15897509534
15897516187
15897520459
15897526074
15897531079
15897536877
15897542981
15897548291
15897553113
15897559399
15897564953
15897571484
15897576428
15897582165
15897588391
15897595837
15897602429
15897607129
15897612988
15897619030
15897626233
15897633801
15897640637
15897647351
15897653332
15897657483
15897664563
15897669567
15897674633
15897680004
15897684521
15897690441
15897696118
15897701672
15897707104
15897713452
15897719433
15897725292
15897731213
15897737622
15897742443
15897748486
15897754101
15897761059
15897766796
15897773937
15897778637
15897784863
15897789135
15897795910
15897802197
15897808056
15897814526
15897819103
15897821789
15897827709
15897832104
15897838818
15897844006
15897851086
15897856762
15897864330
15897868786
15897875805
15897881176
15897891125
15897896007
15897903576
15897906749
15897915416
15897921703
15897927135
15897932079
15897938366
15897943676
15897948436
15897956615
15897962230
15897968334
15897975170
15897980785
15897985424
15897993053
15897999401
15898003551
15898009166
15898014904
15898020397
15898027416
15898033153
15898039562
15898044933
15898051280
15898058482
15898062328
15898069347
15898074413
15898081615
15898086742
15898092418
15898098888
15898105479
15898111461
15898116710
15898121349
15898128307
15898133372
15898139354
15898142528
15898150889
15898158641
15898163463
15898168345
15898174205
15898179942
15898186778
15898192882
15898201060
15898209117
15898214976
15898222484
15898229319
15898234385
15898241099
15898246775
15898252330
15898258067
15898265879
15898271739
15898277171
15898282725
15898288401
15898293772
15898298350
15898305369
15898310557
15898317942
15898323802
15898328929
15898333750
15898340403
15898346507
15898354136
15898360667
15898368296
15898374644
15898380808
15898385935
15898391550
15898395335
15898401438
15898407542
15898413035
15898417490
15898424082
15898428049
15898435679
15898440745
15898445872
15898450999
15898456492
15898461191
15898467234
15898471750
15898478403
15898484446
15898488901
15898496775
15898504221
15898509287
15898514902
15898519907
15898526133
15898531992
15898538340
15898543772
15898547678
15898555857
15898562937
15898573130
15898579172
15898586618
15898594309
15898602732
15898611093
15898619577
15898623606
15898633920
15898639963
15898648081
15898654306
15898664133
15898670480
15898679392
15898685983
15898695139
15898700143
15898707285
15898715890
15898721994
15898731699
15898739023
15898747690
15898754892
15898760873
15898767953
15898776681
15898783639
15898790597
15898800912
15898807077
15898816110
15898822336
15898829660
15898839608
15898844735
15898854013
15898861703
15898869332
15898877206
15898885263
15898891854
15898901742
15898908212
15898915658
15898923104
15898932809
15898938241
15898945809
15898955453
15898961800
15898967660
15898976327
15898983041
15898992684
15898999337
15899009164
15899017831
15899026192
15899032174
15899040353
15899047005
15899057748
15899065255
15899073861
15899081551
15899089425
15899098702
15899105721
15899114266
15899124642
15899131722
15899139351
15899146187
15899154244
15899161141
15899168709
15899176827
15899188240
15899196175
15899202706
15899213387
15899218880
15899226814
15899234200
15899241646
15899254158
15899261421
15899268929
15899274544
15899284187
15899292305
15899298958
15899306892
15899317085
15899325020
15899329109
15899338936
15899348457
15899354744
15899364021
15899372078
15899378425
15899386909
15899395393
15899400703
15899409492
15899417793
15899425422
15899432319
15899441597
15899450630
15899457161
15899464302
15899473884
15899480720
15899487739
15899495857
15899503974
15899511909
15899520698
15899528694
15899536384
15899544441
15899550483
15899559943
15899567817
15899576057
15899584296
15899592780
15899598518
15899604987
15899615424
15899622504
15899632453
15899639960
15899648017
15899654426
15899663886
15899670234
15899679755
15899685798
15899695136
15899702399
15899712043
15899718818
15899729743
15899737738
15899752631
15899763495
15899772650
15899783393
15899793402
15899802924
15899813605
15899823248
15899834540
15899848578
15899864813
15899875433
15899885138
15899895209
15899906989
15899916022
15899927252
15899936468
15899949957
15899960516
15899971686
15899982367
15899987250
15900002081
15900013617
15900023321
15900032843
15900039984
15900049871
15900059332
15900066839
15900078375
15900086248
15900094610
15900105230
15900113287
15900124273
15900133001
15900141119
15900149847
15900158331
15900167730
15900176702
15900185308
15900194524
15900203374
15900212347
15900221441
15900229253
15900237615
15900247014
15900254156
15900263128
15900270757
15900280034
15900289800
15900297002
15900306524
15900315007
15900347234
15900363958
15900378606
15900393254
15900407353
15900421941
15900437383
15900451299
15900465520
15900479863
15900495244
15900507878
15900515202
15900523259
15900531560
15900545537
15900561040
15900586674
15900601567
15900612065
15900620854
15900629826
15900641117
15900649784
15900657841
15900666203
15900673344
15900682926
15900690617
15900699528
15900707585
15900715580
15900723942
15900731938
15900739567
15900746525
15900752140
15900764042
15900771793
15900780216
15900788029
15900797977
15900805485
15900815739
15900823002
15900830448
15900839786
15900848148
15900856571
15900864384
15900874271
15900883793
15900892277
15900898502
15900906803
15900913822
15900921024
15900928836
15900935917
15900943668
15900952335
15900959415
15900968204
15900975284
15900982120
15900989139
15900998111
15901005435
15901012760
15901020694
15901028201
15901035220
15901041385
15901050174
15901059573
15901069278
15901077518
15901087527
15901097781
15901105167
15901114017
15901120364
15901128909
15901139163
15901146365
15901155520
15901165591
15901172549
15901182315
15901188846
15901200015
15901207705
15901215396
15901222598
15901232302
15901240359
15901249453
15901256716
15901263919
15901270938
15901279544
15901286318
15901295291
15901304385
15901310610
15901318484
15901328555
15901336001
15901342104
15901350771
15901356570
15901366091
15901375430
15901384097
15901393313
15901398257
15901404543
15901409487
15901414004
15901420657
15901425356
15901430788
15901436953
15901441592
15901446779
15901452517
15901457094
15901463320
15901469118
15901473940
15901479494
15901483645
15901490664
15901497439
15901504091
15901511721
15901517580
15901523806
15901527834
15901534914
15901543520
15901549318
15901558046
15901565370
15901574709
15901583010
15901591005
15901598879
15901605776
15901611513
15901618654
15901624819
15901632814
15901639101
15901645998
15901652834
15901659609
15901667787
15901672670
15901680483
15901688051
15901692934
15901701418
15901707521
15901714845
15901720277
15901726259
15901734743
15901740419
15901747865
15901755128
15901761049
15901767396
15901774354
15901782106
15901788637
15901796022
15901801271
15901808778
15901815980
15901823060
15901830751
15901836976
15901844117
15901852113
15901858277
15901864991
15901871949
15901881288
15901889772
15901897401
15901903626
15901912232
15901919251
15901926820
15901935304
15901942140
15901949037
15901959229
15901969178
15901976075
15901984925
15901991761
15902001282
15902008179
15902017274
15902024842
15902032105
15902039612
15902049317
15902055604
15902064698
15902071229
15902077698
15902084290
15902093079
15902099549
15902105652
15902113404
15902120484
15902128418
15902134888
15902144593
15902154236
15902162415
15902169739
15902179505
15902185364
15902195923
15902203064
15902212280
15902220886
15902228211
15902235840
15902242066
15902251343
15902258179
15902266235
15902274170
15902283142
15902290588
15902298889
15902306946
15902313843
15902323425
15902331482
15902339477
15902349731
15902358398
15902365722
15902373962
15902380981
15902391418
15902400085
15902411804
15902419677
15902429016
15902436218
15902446594
15902457153
15902464904
15902474548
15902481872
15902490600
15902497497
15902506713
15902516113
15902523315
15902533386
15902541503
15902548827
15902558166
15902565124
15902575195
15902583129
15902593688
15902605041
15902615295
15902625854
15902638000
15902649108
15902657043
15902663695
15902669372
15902678161
15902685058
15902690368
15902699706
15902708190
15902715880
15902723754
15902730101
15902737242
15902746276
15902753295
15902761656
15902768126
15902774047
15902783202
15902788207
15902798094
15902802184
15902807799
15902816344
15902822020
15902828734
15902834776
15902839049
15902843993
15902849608
15902857237
15902863524
15902870360
15902877623
15902884398
15902890318
15902895201
15902901366
15902905638
15902909972
15902915098
15902920409
15902926268
15902931212
15902936705
15902941588
15902947081
15902953367
15902959776
15902964049
15902970640
15902978880
15902982908
15902988524
15902994322
15903000547
15903006590
15903012449
15903018126
15903024900
15903030577
15903036680
15903042906
15903048887
15903055235
15903059690
15903066587
15903071836
15903078428
15903082762
15903087583
15903093443
15903099424
15903103514
15903111997
15903118162
15903124143
15903129331
15903134947
15903142027
15903150266
15903167356
15903179380
15903187864
15903197263
15903206113
15903212583
15903217710
15903224851
15903232908
15903238401
15903243772
15903250364
15903255613
15903261655
15903267331
15903273984
15903280515
15903286069
15903291990
15903297422
15903300657
15903307737
15903311887
15903316465
15903322690
15903326474
15903331845
15903335813
15903341367
15903345517
15903351865
15903358274
15903363767
15903369138
15903374204
15903379575
15903385190
15903390744
15903396604
15903402341
15903408200
15903414243
15903421201
15903427854
15903434506
15903441098
15903445737
15903452634
15903459470
15903465268
15903471738
15903477109
15903483945
15903488705
15903494626
15903502621
15903507992
15903512082
15903517819
15903523556
15903530026
15903536313
15903542233
15903548581
15903555966
15903560116
15903565610
15903570492
15903576352
15903582516
15903588986
15903594784
15903601437
15903606259
15903612057
15903617855
15903624020
15903630062
15903637020
15903643429
15903649533
15903652767
15903659725
15903664059
15903669918
15903675045
15903682797
15903687863
15903693783
15903700558
15903705319
15903711666
15903718136
15903723812
15903730221
15903736080
15903741757
15903748776
15903754025
15903759884
15903762936
15903771236
15903780575
15903785458
15903794430
15903801266
15903805843
15903811703
15903817074
15903823543
15903829830
15903835995
15903841915
15903848568
15903855648
15903861202
15903868343
15903872921
15903876217
15903885738
15903894893
15903900997
15903907283
15903913936
15903918209
15903926387
15903931942
15903935909
15903942867
15903951229
15903956661
15903961910
15903968807
15903973812
15903980098
15903989070
15903994502
15904004207
15904011775
15904018001
15904026119
15904034419
15904043453
15904049678
15904058345
15904067256
15904073726
15904080501
15904091121
15904098567
15904107967
15904113399
15904119990
15904128963
15904135615
15904143245
15904150996
15904158137
15904165400
15904174006
15904179744
15904189998
15904198237
15904205684
15904211177
15904220027
15904227290
15904236445
15904244990
15904254389
15904265925
15904274165
15904284846
15904294306
15904302058
15904308222
15904314570
15904324702
15904333979
15904341731
15904348444
15904359187
15904363886
15904374995
15904382563
15904390192
15904397944
15904404475
15904413874
15904421808
15904429621
15904436030
15904443903
15904450922
15904459955
15904468561
15904476618
15904481135
15904491449
15904499323
15904508051
15904514582
15904522882
15904529596
15904536737
15904544611
15904553156
15904561090
15904569147
15904576471
15904582514
15904594660
15904605097
15904618280
15904628656
15904640253
15904651544
15904663446
15904672296
15904679071
15904689569
15904699335
15904708002
15904715997
15904724603
15904731317
15904741510
15904747980
15904757501
15904764093
15904773309
15904782525
15904791314
15904798150
15904807245
15904814141
15904823114
15904832513
15904838983
15904848321
15904855462
15904862603
15904870050
15904879571
15904887200
15904896417
15904903619
15904911065
15904917657
15904927728
15904935174
15904942864
15904953851
15904962334
15904969537
15904976617
15904985650
15904992852
15905000115
15905007867
15905014947
15905024529
15905031548
15905039055
15905046380
15905054070
15905061028
15905070611
15905079033
15905086602
15905094658
15905102410
15905110039
15905118096
15905125542
15905133232
15905141838
15905149407
15905156426
15905163933
15905170586
15905178276
15905184319
15905193840
15905200798
15905210930
15905219048
15905226799
15905235100
15905242973
15905249138
15905256584
15905266472
15905274712
15905281303
15905288078
15905297111
15905304008
15905313164
15905319267
15905328850
15905335808
15905345024
15905351005
15905360344
15905367607
15905376701
15905384941
15905392387
15905401359
15905410270
15905415702
15905422599
15905429191
15905433830
15905438591
15905444206
15905450553
15905457023
15905462272
15905465324
15905472160
15905478691
15905485099
15905492484
15905499442
15905505485
15905510856
15905516105
15905521903
15905528495
15905536674
15905541557
15905546867
15905552726
15905559013
15905564017
15905571586
15905577140
15905584220
15905589347
15905594535
15905601249
15905607108
15905612174
15905616447
15905624625
15905630240
15905636344
15905642203
15905648612
15905659049
15905664420
15905671256
15905677237
15905683219
15905688773
15905693778
15905697623
15905704154
15905709098
15905713736
15905718314
15905724295
15905729117
15905734488
15905740592
15905745841
15905752005
15905757376
15905762137
15905767386
15905773184
15905779105
15905784903
15905790213
15905794669
15905801322
15905807364
15905813406
15905819937
15905826407
15905832327
15905838126
15905844168
15905849844
15905855521
15905861380
15905867484
15905873343
15905879752
15905885489
15905890250
15905897024
15905904593
15905910147
15905915762
15905921683
15905927420
15905933584
15905940054
15905947622
15905952200
15905959280
15905963492
15905970511
15905975943
15905981558
15905986380
15905993399
15905998892
15906004446
15906009634
15906015921
15906021414
15906027456
15906033865
15906039602
15906046865
15906052847
15906057546
15906065359
15906071157
15906077566
15906084402
15906090017
15906095938
15906101492
15906107351
15906113088
15906118337
15906124014
15906130361
15906136465
15906143240
15906149587
15906156057
15906161672
15906167165
15906173025
15906177541
15906185354
15906192251
15906198110
15906203054
15906209341
15906217336
15906222280
15906229360
15906235097
15906242788
15906249563
15906255666
15906262929
15906267507
15906275014
15906279897
15906287465
15906292775
15906299550
15906304982
15906310414
15906316701
15906322133
15906327382
15906334523
15906340688
15906347097
15906353200
15906358022
15906363820
15906368459
15906375661
15906381459
15906388478
15906393239
15906398549
15906404164
15906411794
15906419850
15906425649
15906433949
15906440480
15906444691
15906450856
15906457448
15906462148
15906469655
15906475026
15906481862
15906488393
15906492787
15906497609
15906505055
15906510060
15906515736
15906523121
15906529103
15906536305
15906540211
15906546742
15906552907
15906558400
15906564320
15906569569
15906576527
15906582081
15906586293
15906594471
15906599965
15906610035
15906615895
15906623402
15906632984
15906639027
15906647389
15906655567
15906661915
15906670399
15906676258
15906684803
15906692738
15906702320
15906713978
15906719471
15906728748
15906735767
15906744617
15906751331
15906761280
15906767200
15906776051
15906782764
15906791798
15906798572
15906806324
15906815540
15906822681
15906832447
15906839466
15906847217
15906854725
15906866932
15906875782
15906883472
15906891346
15906899402
15906907276
15906916248
15906923389
15906932117
15906939380
15906945545
15906953235
15906962085
15906970203
15906978076
15906986194
15906992969
15907000537
15907007617
15907015735
15907022998
15907034595
15907042896
15907049182
15907055103
15907063953
15907069873
15907079944
15907086658
15907094348
15907104175
15907110766
15907118030
15907124621
15907134753
15907143176
15907150683
15907159717
15907167285
15907174792
15907182238
15907189807
15907197497
15907205310
15907213183
15907222949
15907230334
15907237536
15907245410
15907252307
15907259875
15907265856
15907275073
15907281359
15907292040
15907298815
15907308886
15907315173
15907323595
15907331530
15907337450
15907345324
15907354540
15907362292
15907370409
15907377245
15907383776
15907391650
15907399950
15907410387
15907420153
15907427721
15907436571
15907444628
15907450853
15907460070
15907467638
15907475084
15907485094
15907493090
15907499926
15907507860
15907518480
15907525255
15907534899
15907540514
15907550890
15907559435
15907567186
15907574938
15907581041
15907590685
15907597337
15907603563
15907613085
15907624376
15907631334
15907642076
15907649156
15907659593
15907668138
15907676866
15907684984
15907695970
15907703477
15907709886
15907720445
15907726793
15907736863
15907745591
15907753221
15907762254
15907771592
15907779588
15907785753
15907794542
15907801194
15907809434
15907817491
15907826097
15907833665
15907841905
15907849473
15907857896
15907864915
15907872727
15907880296
15907890855
15907898240
15907906358
15907913377
15907921922
15907929124
15907934617
15907944444
15907953110
15907960984
15907966294
15907975999
15907982957
15907992844
15908002549
15908009080
15908020188
15908026169
15908036362
15908041123
15908048142
15908053513
15908059861
15908065842
15908071274
15908078293
15908083542
15908088974
15908093003
15908101242
15908104721
15908112656
15908116989
15908124497
15908132065
15908137131
15908145554
15908152390
15908160385
15908168076
15908173691
15908178879
15908183151
15908188461
15908194443
15908198349
15908203476
15908211105
15908215988
15908222763
15908228561
15908234421
15908240891
15908247238
15908254684
15908261032
15908267563
15908272568
15908277084
15908283493
15908288254
15908293808
15908300888
15908306076
15908310470
15908317489
15908322861
15908328171
15908334335
15908339584
15908345810
15908351425
15908357467
15908363388
15908368576
15908375229
15908379501
15908385116
15908392807
15908399887
15908406417
15908415206
15908420150
15908426620
15908433212
15908439132
15908445602
15908450973
15908457443
15908462509
15908467086
15908471847
15908477462
15908483199
15908489547
15908496078
15908499191
15908506454
15908510604
15908517013
15908521835
15908529403
15908535934
15908541427
15908546310
15908551009
15908557113
15908561935
15908568648
15908573348
15908581588
15908588119
15908595260
15908599837
15908606368
15908612594
15908617904
15908622115
15908627791
15908635177
15908640853
15908646712
15908652450
15908657393
15908663009
15908669722
15908675521
15908682601
15908688521
15908693343
15908699691
15908704146
15908711470
15908716292
15908722274
15908728499
15908734908
15908742171
15908747481
15908752608
15908758101
15908763899
15908769515
15908775252
15908782332
15908787825
15908792708
15908798506
15908806441
15908811018
15908816023
15908824019
15908829817
15908835555
15908842696
15908848738
15908855330
15908862776
15908868208
15908874495
15908880171
15908889754
15908897200
15908903792
15908909407
15908915877
15908920393
15908925886
15908933882
15908941206
15908946882
15908953230
15908958784
15908964827
15908969954
15908975996
15908983381
15908988630
15908995710
15908999678
15909007307
15909014021
15909019453
15909026045
15909031355
15909037825
15909045820
15909050337
15909056928
15909061933
15909066938
15909073530
15909079756
15909085615
15909091291
15909097944
15909102705
15909107954
15909113386
15909118513
15909123701
15909131086
15909136457
15909141828
15909146589
15909151167
15909157636
15909162031
15909167585
15909173383
15909180463
15909184370
15909191083
15909195844
15909203229
15909206830
15909213910
15909221723
15909229352
15909237348
15909243635
15909249738
15909259259
15909266584
15909274091
15909282575
15909291059
15909299054
15909306623
15909310773
15909321759
15909329816
15909337995
15909345990
15909353803
15909362226
15909368085
15909378156
15909384503
15909392987
15909400189
15909406171
15909415936
15909422162
15909429242
15909436932
15909444012
15909449994
15909458234
15909464642
15909473248
15909481793
15909489300
15909495160
15909503094
15909508710
15909515973
15909522992
15909531537
15909541058
15909546978
15909555157
15909560589
15909568890
15909576031
15909588177
15909594586
15909603985
15909610333
15909619366
15909627056
15909634136
15909640301
15909650860
15909659344
15909667217
15909674969
15909681927
15909689007
15909696880
15909704083
15909711834
15909723431
15909729778
15909738689
15909747173
15909753948
15909761700
15909770061
15909775494
15909786480
15909794536
15909801250
15909810222
15909817302
15909827007
15909833050
15909840374
15909848186
15909856670
15909866314
15909873882
15909880779
15909888713
15909898174
15909903911
15909911479
15909919231
15909929302
15909934978
15909943218
15909951213
15909958782
15909966350
15909974040
15909983989
15909992290
15910000407
15910005962
15910014140
15910021831
15910028178
15910037456
15910044780
15910054057
15910061809
15910070659
15910077922
15910085612
15910092631
15910099528
15910110148
15910118510
15910126506
15910134623
15910142131
15910149028
15910158671
15910165202
15910173442
15910181742
15910190104
15910198832
15910206950
15910213725
15910221781
15910231059
15910240031
15910250407
15910258280
15910267680
15910276774
15910284342
15910292033
15910298686
15910306559
15910315104
15910323466
15910330424
15910338114
15910347025
15910355753
15910362772
15910371439
15910378580
15910387675
15910394755
15910407572
15910416666
15910421854
15910435282
15910441263
15910448160
15910458048
15910467508
15910472391
15910482218
15910490824
15910497477
15910504862
15910514444
15910523722
15910530191
15910539041
15910545206
15910554483
15910560709
15910568887
15910577005
15910585977
15910593851
15910603311
15910610880
15910620035
15910626993
15910631815
15910637125
15910644632
15910650674
15910656656
15910662149
15910668069
15910673318
15910678201
15910685403
15910689920
15910697183
15910703531
15910708413
15910714639
15910719034
15910725503
15910732950
15910739114
15910744607
15910750222
15910755655
15910761270
15910767740
15910772866
15910778848
15910786477
15910791482
15910798013
15910802529
15910808938
15910814187
15910820779
15910827737
15910834573
15910840310
15910845071
15910850625
15910856606
15910862344
15910867715
15910874612
15910879617
15910886331
15910891335
15910897317
15910902017
15910907266
15910913308
15910918984
15910925271
15910930093
15910936929
15910941567
15910947182
15910952370
15910959634
15910964699
15910970071
15910975625
15910980935
15910985634
15910992531
15910999795
15911006508
15911012002
15911017678
15911023781
15911030190
15911035927
15911041420
15911049599
15911055642
15911061196
15911067482
15911073098
15911078774
15911083840
15911090798
15911095497
15911100441
15911107521
15911112099
15911118935
15911124672
15911129860
15911136025
15911141274
15911148903
15911154885
15911160134
15911168862
15911173500
15911180397
15911187233
15911195046
15911200234
15911207619
15911212196
15911219032
15911223366
15911228493
15911234169
15911239906
15911248634
15911253395
15911260353
15911266456
15911272255
15911278236
15911282814
15911287575
15911295387
15911301552
15911306373
15911311806
15911319130
15911324440
15911329628
15911334755
15911341530
15911347816
15911353614
15911359108
15911365699
15911372169
15911378273
15911383949
15911389076
15911395790
15911401344
15911406532
15911413002
15911419105
15911425025
15911431617
15911437904
15911444129
15911450233
15911455360
15911461768
15911468055
15911473853
15911477088
15911484657
15911490211
15911497291
15911502113
15911509437
15911513892
15911518897
15911526344
15911531348
15911538489
15911543372
15911550330
15911556068
15911560523
15911566321
15911574317
15911579688
15911586219
15911592628
15911601233
15911606360
15911613135
15911617408
15911626014
15911634559
15911639380
15911646582
15911652442
15911657508
15911664100
15911668250
15911675757
15911681983
15911687293
15911694007
15911701026
15911705725
15911711646
15911717627
15911722937
15911728003
15911734168
15911741797
15911747840
15911752722
15911758399
15911764258
15911770789
15911778235
15911783667
15911792883
15911799902
15911804419
15911812170
15911816992
15911823584
15911828223
15911835364
15911844946
15911852270
15911858618
15911867102
15911872717
15911881018
15911886999
15911896033
15911902136
15911909949
15911917090
15911927038
15911933081
15911959631
15911966833
15911974401
15911983313
15911990332
15911998449
15912008947
15912015539
15912021948
15912029821
15912039282
15912047766
15912055456
15912062597
15912068884
15912077917
15912085729
15912093725
15912101354
15912109533
15912117895
15912124120
15912130712
15912140661
15912147008
15912153417
15912161718
15912170629
15912178197
15912187047
15912194066
15912200353
15912208654
15912217565
15912223180
15912232946
15912240941
15912247350
15912254735
15912260778
15912268224
15912276036
15912284581
15912291906
15912299840
15912308202
15912315282
15912322057
15912331334
15912337682
15912346471
15912353978
15912360936
15912371251
15912377232
15912386632
15912393651
15912401524
15912410069
15912417821
15912429845
15912437718
15912446385
15912453770
15912460911
15912468663
15912476414
15912483555
15912492467
15912500706
15912507542
15912516881
15912524937
15912532811
15912537266
15912548802
15912557713
15912566502
15912572361
15912582310
15912589085
15912599034
15912606114
15912614781
15912622471
15912629429
15912637791
15912645298
15912654148
15912661961
15912668064
15912677036
15912683994
15912691013
15912699986
15912706211
15912713657
15912723972
15912729771
15912738804
15912744236
15912753086
15912762119
15912769626
15912776951
15912785923
15912792942
15912801121
15912808262
15912816196
15912822544
15912831028
15912838535
15912847324
15912853611
15912862339
15912870700
15912878086
15912885532
15912892856
15912900913
15912908603
15912917270
15912925327
15912931308
15912941013
15912947482
15912957248
15912963229
15912970065
15912977512
15912986484
15912992465
15913002536
15913007846
15913015781
15913024936
15913033908
15913041293
15913049106
15913055759
15913064731
15913071872
15913079806
15913088656
15913094638
15913101108
15913111056
15913117526
15913125644
15913133029
15913140658
15913148166
15913155124
15913164340
15913171359
15913181979
15913188082
15913198947
15913206515
15913215243
15913224703
15913233187
15913241061
15913246554
15913252719
15913258212
15913262667
15913268343
15913276400
15913283175
15913287386
15913293551
15913298922
15913304598
15913311190
15913317721
15913323702
15913331393
15913336825
15913342745
15913347933
15913352877
15913360201
15913365450
15913373934
15913378023
15913385531
15913390474
15913395724
15913399996
15913407076
15913414217
15913419954
15913425387
15913431429
15913437349
15913443026
15913449312
15913455172
15913461031
15913467195
15913473787
15913479586
15913485811
15913491671
15913496797
15913502108
15913506014
15913514376
15913518526
15913525057
15913530367
15913535921
15913540254
15913547884
15913553682
15913560518
15913565767
15913572908
15913577608
15913584993
15913589327
15913596346
15913601778
15913609163
15913613313
15913620393
15913624971
15913631197
15913637971
15913644014
15913650606
15913657503
15913664278
15913668855
15913676668
15913683320
15913687105
15913694978
15913701570
15913707734
15913713472
15913719331
15913726289
15913731294
15913737947
15913743928
15913750276
15913756868
15913763704
15913768769
15913775911
15913782502
15913785554
15913793916
15913800263
15913809419
15913816255
15913821076
15913825776
15913832612
15913838410
15913844758
15913851899
15913858308
15913863252
15913870576
15913876130
15913882111
15913888154
15913894135
15913901337
15913907319
15913912507
15913918305
15913925080
15913929658
15913935944
15913943268
15913950715
15913957184
15913963044
15913970429
15913975373
15913982087
15913987641
15913993500
15913998749
15914005402
15914011261
15914015900
15914021760
15914026337
15914031952
15914038605
15914043976
15914049286
15914054718
15914059296
15914066132
15914071625
15914076935
15914084687
15914089752
15914094086
15914100189
15914105561
15914110016
15914115631
15914122650
15914128815
15914133820
15914141144
15914145355
15914152435
15914157684
15914163300
15914171295
15914179901
15914184052
15914189850
15914194794
15914201019
15914208343
15914213470
15914218903
15914224945
15914231964
15914236969
15914242584
15914249115
15914254425
15914260467
15914265900
15914272064
15914277435
15914282074
15914289032
15914294708
15914301117
15914305999
15914311737
15914317718
15914323883
15914327240
15914335113
15914341766
15914347442
15914353057
15914357208
15914365326
15914372955
15914377716
15914382720
15914387908
15914393890
15914400177
15914407562
15914415679
15914422393
15914428131
15914436126
15914443755
15914453826
15914458953
15914468536
15914475127
15914485259
15914491912
15914499541
15914503448
15914515044
15914522796
15914530425
15914538299
15914546477
15914550506
15914560576
15914566619
15914576995
15914583037
15914589629
15914598662
15914607085
15914613250
15914619658
15914628753
15914636077
15914644866
15914650725
15914659392
15914666960
15914675261
15914682219
15914688323
15914697112
15914704741
15914712981
15914720732
15914729827
15914737456
15914744963
15914752409
15914760222
15914767180
15914775115
15914783415
15914793486
15914803740
15914809050
15914819243
15914827788
15914835295
15914842741
15914850371
15914861845
15914870817
15914878508
15914885893
15914892790
15914901640
15914908598
15914918913
15914926054
15914933867
15914941923
15914948454
15914957975
15914964201
15914970549
15914979948
15914986906
15914996733
15915003080
15915009855
15915019499
15915025846
15915036772
15915044828
15915053068
15915059416
15915067960
15915075346
15915083585
15915091154
15915100004
15915106962
15915114896
15915122953
15915131559
15915138578
15915147733
15915154142
15915160612
15915170560
15915176298
15915186185
15915192289
15915202726
15915210111
15915219938
15915226835
15915233731
15915240995
15915247953
15915259000
15915266690
15915274076
15915281705
15915288907
15915296475
15915305509
15915313382
15915321378
15915330350
15915339505
15915347196
15915353726
15915361417
15915369717
15915377652
15915385403
15915394376
15915403592
15915411649
15915418362
15915428860
15915435818
15915443509
15915454373
15915459622
15915469021
15915474515
15915484402
15915491116
15915500760
15915506070
15915514615
15915524258
15915533108
15915540371
15915548184
15915556179
15915562100
15915568997
15915579678
15915589321
15915597927
15915602688
15915613247
15915619595
15915628689
15915635769
15915642422
15915650051
15915658413
15915666348
15915675137
15915682766
15915687771
15915696194
15915705654
15915712185
15915720058
15915727993
15915736721
15915741909
15915751552
15915761074
15915768764
15915775905
15915783474
15915790859
15915798671
15915807949
15915819179
15915827175
15915834499
15915840969
15915850734
15915856777
15915862270
15915868190
15915873561
15915878200
15915884792
15915889980
15915898220
15915903652
15915908962
15915914577
15915920009
15915926479
15915930873
15915938564
15915944972
15915956935
15915964443
15915974880
15915980190
15915985194
15915992397
15915998195
15916006007
15916012355
15916017360
15916025844
15916030727
15916038295
15916043849
15916050197
15916057216
15916063136
15916067836
15916072597
15916079249
15916084743
15916091945
15916097133
15916102199
15916108729
15916113917
15916119227
15916125453
15916132594
15916138881
15916143641
15916152858
15916158778
15916165553
15916172450
15916179347
15916185694
15916190943
15916196192
15916201563
15916207789
15916214625
15916219996
15916225062
15916232264
15916237574
15916244349
15916249781
15916256129
15916262171
15916268519
15916273158
15916279566
15916286707
15916291895
15916298792
15916304957
15916310328
15916315211
15916320765
15916325892
15916331995
15916337427
15916343470
15916349024
15916355982
15916360804
15916365442
15916372095
15916377222
15916381983
15916389124
15916395838
15916401087
15916406580
15916411768
15916417078
15916422327
15916426966
15916434229
15916440943
15916446436
15916451563
15916457239
15916463160
15916468653
15916475550
15916480982
15916486719
15916491907
15916496546
15916501917
15916507959
15916514612
15916522852
15916527735
15916533533
15916538294
15916544031
15916548914
15916553491
15916560632
15916565881
15916573511
15916579431
15916586023
15916590173
15916596155
15916600244
15916606714
15916613916
15916619714
15916625085
15916630762
15916636133
15916640405
15916648035
15916652551
15916659265
15916664758
15916671350
15916677026
15916684289
15916691308
15916696130
15916703332
15916707849
15916713464
15916720849
15916727136
15916732324
15916739160
15916744165
15916751184
15916755212
15916761315
15916766687
15916771325
15916776513
15916781335
15916787622
15916793847
15916799523
15916804345
15916809289
15916815515
15916820947
15916826318
15916832787
15916837487
15916844079
15916848351
15916855737
15916860192
15916866113
15916870751
15916878808
15916884362
15916889794
15916894372
15916899499
15916905968
15916911156
15916917687
15916922997
15916929040
15916934533
15916939843
15916946557
15916950463
15916957116
15916963585
15916968834
15916975243
15916980553
15916986474
15916991723
15916997826
15917003808
15917014061
15917021508
15917029625
15917037133
15917045555
15917054345
15917059716
15917069176
15917076317
15917085839
15917092552
15917101647
15917109154
15917116295
15917124474
15917131737
15917142296
15917148827
15917155235
15917164085
15917170555
15917179832
15917187340
15917195091
15917203270
15917212852
15917221336
15917227989
15917237694
15917243858
15917253319
15917259849
15917269859
15917276451
15917284874
15917292991
15917300682
15917306785
15917316429
15917323997
15917333946
15917340416
15917349083
15917355247
15917362510
15917371971
15917380638
15917387596
15917398277
15917405113
15917412437
15917422202
15917430930
15917436912
15917443748
15917453513
15917462241
15917468772
15917476341
15917485313
15917493552
15917499839
15917508018
15917515525
15917525840
15917535178
15917543113
15917549277
15917555991
15917565085
15917573813
15917580466
15917590110
15917596579
15917604453
15917613669
15917620261
15917629294
15917636069
15917646689
15917656699
15917664267
15917671958
15917678183
15917689047
15917693137
15917703208
15917713278
15917721396
15917730246
15917737937
15917745261
15917752951
15917759848
15917767783
15917779745
15917788290
15917795431
15917803183
15917810202
15917817831
15917827048
15917833151
15917843588
15917851767
15917860434
15917868002
15917877157
15917884176
15917890280
15917897909
15917909079
15917916586
15917923056
15917932760
15917940573
15917947592
15917954550
15917962057
15917971395
15917979025
15917987142
15917997274
15918003744
15918011495
15918018636
15918026510
15918038168
15918045736
15918054159
15918061422
15918068441
15918076131
15918083944
15918091695
15918102254
15918109518
15918116720
15918124532
15918135030
15918142293
15918150106
15918157369
15918167257
15918174825
15918183553
15918190938
15918199849
15918207174
15918215413
15918224996
15918233236
15918240560
15918248922
15918256002
15918264730
15918271688
15918279134
15918286519
15918295186
15918304524
15918310994
15918320149
15918326924
15918335896
15918344685
15918352864
15918363484
15918370198
15918381551
15918387654
15918393758
15918399617
15918405293
15918411092
15918417439
15918421956
15918428364
15918433613
15918438862
15918446126
15918451680
15918459187
15918464070
15918470601
15918476399
15918481892
15918487751
15918493000
15918499958
15918505207
15918509846
15918515950
15918521443
15918527851
15918534382
15918539326
15918546162
15918551228
15918557698
15918564228
15918569966
15918573017
15918581135
15918586079
15918592671
15918598347
15918605366
15918610432
15918617207
15918622456
15918627583
15918634358
15918640949
15918646748
15918653767
15918659077
15918665363
15918672199
15918680195
15918686359
15918691486
15918697163
15918703754
15918710224
15918715168
15918725422
15918732563
15918738422
15918744953
15918750812
15918756244
15918763752
15918768940
15918776264
15918782490
15918789631
15918795429
15918800678
15918807087
15918812885
15918819965
15918826130
15918834003
15918840961
15918846088
15918853717
15918859455
15918865802
15918871295
15918876544
15918884723
15918889362
15918894184
15918900897
15918907428
15918912677
15918918414
15918924945
15918932269
15918937213
15918943927
15918950092
15918955341
15918960773
15918968341
15918973041
15918979510
15918986102
15918992023
15918997882
15919002948
15919008868
15919017779
15919024005
15919030414
15919036639
15919042499
15919050433
15919056598
15919064105
15919069354
15919074420
15919081622
15919086322
15919093524
15919098346
15919105365
15919111529
15919118975
15919123675
15919131121
15919138385
15919144244
15919150958
15919156695
15919162127
15919168597
15919172991
15919179522
15919185015
15919191790
15919198138
15919203814
15919213336
15919219195
15919225237
15919231219
15919236895
15919242571
15919248309
15919254107
15919261309
15919267779
15919274493
15919280413
15919287432
15919292071
15919297930
15919306719
15919311846
15919317400
15919322161
15919328509
15919333391
15919337908
15919346880
15919354815
15919360247
15919366228
15919372820
15919377642
15919384111
15919388506
15919395342
15919401079
15919407305
15919416338
15919422319
15919430071
15919435198
15919442339
15919449114
15919455706
15919461992
15919467485
15919472063
15919477373
15919483293
15919488664
15919496172
15919501055
15919506120
15919511919
15919516130
15919521929
15919526872
15919532366
15919538591
15919543535
15919548906
15919556718
15919562273
15919567278
15919572282
15919577959
15919585771
15919590959
15919597734
15919602495
15919607378
15919612443
15919619218
15919624101
15919632951
15919639482
15919643815
15919648332
15919655290
15919661455
15919665422
15919673478
15919681230
15919686845
15919692460
15919697221
15919703264
15919707658
15919713212
15919718583
15919727311
15919732377
15919737443
15919744035
15919748979
15919756242
15919761857
15919767716
15919773271
15919779679
15919785478
15919792008
15919797257
15919803788
15919809464
15919817033
15919821610
15919829301
15919834977
15919842484
15919849198
15919852799
15919861710
15919869096
15919875809
15919880631
15919887284
15919892777
15919900468
15919905350
15919910966
15919917191
15919923722
15919930558
15919936356
15919942399
15919947465
15919954545
15919961258
15919965958
15919971451
15919979142
15919982254
15919990983
15919996598
15920003373
15920009354
15920016068
15920022843
15920032059
15920036698
15920043351
15920048416
15920053543
15920061478
15920066239
15920073624
15920078263
15920084549
15920089737
15920094742
15920100113
15920106217
15920111344
15920117386
15920124527
15920131485
15920136612
15920142960
15920148880
15920153152
15920158279
15920164200
15920169693
15920175125
15920180862
15920187271
15920193069
15920198746
15920204178
15920208267
15920214859
15920221451
15920227188
15920233230
15920240005
15920243789
15920249527
15920256119
15920262161
15920268692
15920275467
15920280105
15920286209
15920293045
15920298538
15920302688
15920311538
15920318496
15920323623
15920328872
15920335037
15920341445
15920346145
15920356521
15920362869
15920369583
15920375259
15920378433
15920385574
15920390640
15920398513
15920401504
15920409194
15920414504
15920422805
15920427810
15920433852
15920438735
15920445327
15920451736
15920455642
15920462722
15920468276
15920475600
15920480788
15920488723
15920494460
15920501357
15920507400
15920513808
15920520156
15920526320
15920531386
15920538283
15920544326
15920550368
15920556472
15920562087
15920569655
15920574965
15920580397
15920585524
15920590468
15920596633
15920602492
15920608046
15920614211
15920619765
15920626113
15920634475
15920640456
15920647414
15920655043
15920660231
15920669509
15920674575
15920679824
15920685744
15920690627
15920695693
15920700636
15920708083
15920712966
15920719985
15920725050
15920731459
15920736159
15920742140
15920747206
15920752699
15920760573
15920765700
15920770705
15920777418
15920781691
15920788161
15920792921
15920798292
15920805800
15920811232
15920816542
15920821974
15920826857
15920832472
15920839247
15920845045
15920852064
15920857618
15920863356
15920869642
15920872938
15920880751
15920885084
15920890944
15920898878
15920905470
15920910414
15920915846
15920922682
15920928480
15920933607
15920938429
15920944471
15920950209
15920955885
15920962293
15920968885
15920975111
15920979383
15920985548
15920991407
15920997206
15921002882
15921007337
15921013197
15921020399
15921025343
15921030409
15921036024
15921042249
15921048780
15921054212
15921060499
15921065931
15921071363
15921078016
15921084302
15921090406
15921097791
15921104932
15921109144
15921116712
15921122144
15921128614
15921136670
15921143384
15921153211
15921159681
15921165540
15921171521
15921175123
15921181653
15921187330
15921193128
15921200574
15921208142
15921212903
15921218152
15921223951
15921230603
15921235669
15921243543
15921250074
15921257459
15921266004
15921271558
15921278150
15921285596
15921289868
15921294995
15921300061
15921306165
15921310193
15921317944
15921323926
15921329480
15921333691
15921339124
15921345288
15921349988
15921354932
15921361279
15921366650
15921372815
15921378613
15921385266
15921392407
15921398022
15921403760
15921409558
15921414868
15921421643
15921427991
15921436902
15921443921
15921450207
15921455151
15921463696
15921470349
15921475049
15921479870
15921486401
15921491040
15921497021
15921501233
15921507153
15921511486
15921517712
15921522656
15921528210
15921536145
15921540844
15921546765
15921551953
15921559033
15921564526
15921570751
15921576306
15921583203
15921589855
15921596569
15921599682
15921608654
15921612072
15921619763
15921625317
15921632580
15921638805
15921644909
15921650402
15921655285
15921662182
15921667980
15921673656
15921678905
15921685131
15921692272
15921699108
15921703930
15921714611
15921720898
15921724926
15921733715
15921742016
15921747082
15921752941
15921759227
15921765575
15921770946
15921776622
15921783641
15921791271
15921797252
15921804027
15921810497
15921816173
15921820568
15921827037
15921834117
15921840770
15921847606
15921850902
15921858715
15921864818
15921873302
15921879161
15921886608
15921890575
15921896556
15921902171
15921909007
15921914073
15921919322
15921924144
15921929210
15921935008
15921947520
15921961559
15921967845
15921973582
15921981456
15921987559
15921992747
15921997752
15922005199
15922012218
15922017406
15922023997
15922029918
15922036021
15922042796
15922047435
15922054149
15922059764
15922065013
15922071238
15922074473
15922082957
15922087474
15922094432
15922098887
15922104869
15922109263
15922116221
15922121653
15922134165
15922141246
15922146372
15922151683
15922156077
15922162730
15922168406
15922175364
15922181285
15922185923
15922193064
15922198741
15922205271
15922211436
15922217234
15922223582
15922229075
15922233530
15922240427
15922246653
15922252512
15922258982
15922263316
15922268870
15922276621
15922279856
15922288218
15922294199
15922300669
15922306956
15922312144
15922320078
15922325144
15922335093
15922341379
15922348215
15922355539
15922361460
15922367563
15922374033
15922378977
15922386301
15922391245
15922396250
15922401255
15922406992
15922412668
15922419077
15922424021
15922429087
15922435007
15922440378
15922446482
15922452036
15922459665
15922466257
15922473093
15922479929
15922485849
15922492929
15922499521
15922504465
15922511301
15922517282
15922522653
15922527475
15922534494
15922538461
15922544565
15922549570
15922556039
15922563425
15922567941
15922574594
15922580026
15922584970
15922592172
15922597299
15922602548
15922608224
15922613168
15922619028
15922625070
15922628732
15922636911
15922641183
15922648507
15922653207
15922660287
15922664132
15922671945
15922677133
15922682138
15922688791
15922695504
15922700875
15922705453
15922710275
15922717477
15922722970
15922730538
15922735299
15922740792
15922750070
15922754403
15922761422
15922766549
15922772714
15922778939
15922784615
15922789010
15922794808
15922800546
15922807504
15922813668
15922820504
15922825997
15922833077
15922838937
15922845040
15922852059
15922856515
15922862557
15922869637
15922872872
15922880318
15922885628
15922890511
15922897835
15922903451
15922910103
15922916939
15922922555
15922927620
15922935067
15922940377
15922946480
15922952706
15922959908
15922965401
15922971322
15922974434
15922982369
15922988900
15922995736
15923001107
15923006783
15923012398
15923018074
15923021309
15923029244
15923034920
15923040657
15923046334
15923052986
15923059639
15923066170
15923072884
15923078255
15923087898
15923094551
15923101936
15923110542
15923117989
15923122688
15923128609
15923133553
15923138985
15923145271
15923150154
15923157112
15923162178
15923168343
15923173836
15923179512
15923184944
15923190254
15923195930
15923203621
15923209846
15923216072
15923220955
15923225288
15923232795
15923237983
15923244209
15923249336
15923255501
15923261970
15923267524
15923271980
15923277351
15923282478
15923288643
15923294258
15923299934
15923307014
15923312385
15923318122
15923323677
15923328987
15923335151
15923340156
15923346626
15923352912
15923359992
15923365791
15923370613
15923376228
15923379218
15923387519
15923392402
15923400642
15923406867
15923412788
15923418281
15923423957
15923428535
15923434516
15923440376
15923448920
15923453742
15923458991
15923465949
15923471992
15923475532
15923483771
15923487250
15923494392
15923499396
15923507453
15923513862
15923519233
15923528083
15923533820
15923541938
15923552924
15923558295
15923565925
15923569648
15923577155
15923582831
15923588752
15923594794
15923600592
15923608466
15923612372
15923618170
15923623725
15923630744
15923635993
15923642340
15923651801
15923662238
15923667426
15923678046
15923685004
15923691474
15923697638
15923705145
15923713324
15923719428
15923727362
15923733588
15923739752
15923745856
15923752325
15923758429
15923763800
15923771246
15923775336
15923781805
15923786810
15923793036
15923796881
15923803595
15923809454
15923816656
15923821844
15923826849
15923831610
15923837896
15923843878
15923850165
15923855902
15923861883
15923866522
15923872076
15923877325
15923883062
15923888006
15923894537
15923901068
15923906744
15923913397
15923920355
15923924505
15923930181
15923936285
15923942755
15923949285
15923955694
15923961126
15923967291
15923973211
15923979437
15923982916
15923991216
15923996343
15924002996
15924007757
15924013616
15924019781
15924025640
15924031072
15924037969
15924044988
15924051275
15924057317
15924062261
15924068914
15924075506
15924080205
15924087774
15924092962
15924099309
15924103155
15924108831
15924116033
15924121770
15924127141
15924133184
15924139776
15924145696
15924150213
15924156133
15924159246
15924168340
15924176580
15924182195
15924188359
15924194219
15924200017
15924207463
15924213262
15924219976
15924224980
15924232061
15924236943
15924242986
15924249822
15924256413
15924262944
15924268926
15924274785
15924279607
15924286443
15924292485
15924298772
15924303777
15924310185
15924315617
15924323369
15924330754
15924338261
15924343449
15924351140
15924357243
15924362920
15924370793
15924376347
15924380742
15924386296
15924391057
15924397221
15924402959
15924409550
15924414738
15924420109
15924426701
15924431523
15924437626
15924443913
15924450871
15924456486
15924462346
15924467411
15924474247
15924480473
15924486821
15924492680
15924499089
15924511967
15924522343
15924536930
15924541996
15924551335
15924559025
15924564091
15924570011
15924576908
15924583927
15924589909
15924595158
15924601994
15924608463
15924614262
15924618534
15924627079
15924632023
15924640385
15924645206
15924651127
15924656376
15924662235
15924669315
15924676151
15924681278
15924687931
15924693668
15924700931
15924710270
15924717167
15924724003
15924731876
15924739139
15924746036
15924753605
15924761112
15924769352
15924777591
15924783329
15924789371
15924798648
15924807376
15924812076
15924821720
15924829715
15924842533
15924848697
15924862918
15924872867
15924881656
15924888980
15924897952
15924905032
15924913272
15924922977
15924932193
15924938541
15924948245
15924954227
15924963382
15924969424
15924977176
15924984805
15924992679
15924997745
15925003421
15925007815
15925012759
15925018313
15925026187
15925032596
15925040652
15925048770
15925055240
15925061465
15925066775
15925073245
15925078799
15925085452
15925090152
15925094729
15925099551
15925105227
15925110720
15925118716
15925125064
15925131411
15925135501
15925142031
15925148013
15925154360
15925160952
15925167483
15925173708
15925180056
15925186770
15925192568
15925200259
15925204958
15925212222
15925217532
15925223879
15925228335
15925235903
15925242007
15925247317
15925256228
15925263918
15925271609
15925279909
15925286379
15925293154
15925300600
15925308230
15925317202
15925324648
15925331606
15925339419
15925346071
15925353884
15925360720
15925366396
15925375490
15925380617
15925389894
15925396669
15925403994
15925410952
15925418337
15925425722
15925430849
15925439760
15925447084
15925453981
15925461427
15925469728
15925476930
15925483888
15925491090
15925500734
15925508730
15925515016
15925521425
15925526857
15925533571
15925538637
15925545229
15925549867
15925556276
15925562379
15925569276
15925574769
15925581117
15925589174
15925595094
15925600831
15925608278
15925614625
15925621217
15925629030
15925634462
15925641725
15925648500
15925653627
15925661866
15925673341
15925685243
15925692933
15925701966
15925711000
15925719483
15925726441
15925736146
15925742494
15925747926
15925754945
15925760926
15925766602
15925773622
15925779664
15925784058
15925789308
15925796082
15925802308
15925807984
15925814027
15925822450
15925829041
15925835938
15925841798
15925849183
15925856202
15925861878
15925871583
15925880067
15925886902
15925894410
15925901734
15925910279
15925917481
15925925232
15925933655
15925939942
15925948426
15925956421
15925961853
15925968140
15925977723
15925984986
15925993286
15926000428
15926006775
15926013123
15926021668
15926028992
15926035462
15926044861
15926052735
15926061402
15926069336
15926075379
15926083557
15926089905
15926096375
15926105469
15926113953
15926120422
15926127869
15926133911
15926140198
15926145081
15926152832
15926158447
15926163696
15926168762
15926175293
15926182739
15926189453
15926196350
15926201965
15926213623
15926218689
15926224914
15926231262
15926238769
15926247314
15926252868
15926259948
15926264953
15926272766
15926277282
15926283874
15926287719
15926293762
15926299377
15926308288
15926313476
15926318542
15926324096
15926330993
15926336303
15926343444
15926354553
15926361938
15926368896
15926372375
15926383972
15926391235
15926398254
15926406738
15926414123
15926422118
15926427062
15926434875
15926441100
15926449340
15926454650
15926463805
15926472411
15926477904
15926485290
15926493712
15926501220
15926507445
15926514586
15926523803
15926530761
15926539245
15926547301
15926553344
15926562926
15926570800
15926578734
15926588134
15926594908
15926603148
15926610655
15926618712
15926625914
15926631774
15926640624
15926648985
15926656371
15926662169
15926668761
15926673583
15926679808
15926684142
15926689818
15926695372
15926702757
15926710326
15926714293
15926723204
15926728819
15926734862
15926741087
15926746886
15926752501
15926759947
15926765074
15926770140
15926775328
15926781798
15926787535
15926794981
15926801329
15926807493
15926812925
15926819822
15926825560
15926832029
15926837706
15926844847
15926850767
15926857603
15926862852
15926869383
15926875059
15926880552
15926888975
15926895140
15926902098
15926907957
15926914366
15926918089
15926923948
15926931089
15926937315
15926943235
15926949522
15926956907
15926963682
15926971555
15926976194
15926981321
15926987486
15926995420
15927001341
15927008237
15927014768
15927021848
15927025327
15927034177
15927038877
15927046384
15927053037
15927059263
15927066282
15927072141
15927077634
15927083433
15927089902
15927094846
15927098874
15927105649
15927109861
15927115293
15927122007
15927127500
15927132627
15927137632
15927141477
15927146726
15927153684
15927159116
15927162839
15927168882
15927172666
15927178281
15927184323
15927190061
15927195371
15927203000
15927207151
15927212705
15927217465
15927223508
15927228147
15927233274
15927240659
15927247190
15927252866
15927259335
15927264890
15927270078
15927274594
15927280576
15927284970
15927293698
15927299008
15927306882
15927313107
15927319394
15927326291
15927331784
15927338986
15927344113
15927349850
15927355893
15927361203
15927367245
15927370724
15927379758
15927385373
15927394223
15927397641
15927404538
