15858948963
15858954029
15858959584
15858964955
15858970082
15858976002
15858981129
15858986561
15858991749
15858996632
15859002186
15859005787
15859011952
15859018299
15859023365
15859029286
15859033802
15859039173
15859044544
15859050037
15859054920
15859060108
15859066090
15859072254
15859077015
15859082142
15859087452
15859092518
15859097034
15859102528
15859108692
15859117725
15859123707
15859128712
15859133838
15859139698
15859145374
15859150440
15859156055
15859161487
15859166248
15859171253
15859176319
15859183094
15859189686
15859195057
15859200184
15859204761
15859209766
15859215198
15859219654
15859224292
15859229602
15859235279
15859239429
15859243274
15859249500
15859254261
15859260608
15859266590
15859272266
15859277515
15859284046
15859288257
15859293567
15859298694
15859305164
15859311023
15859317188
15859321460
15859326404
15859331592
15859337634
15859343005
15859348804
15859353626
15859360400
15859366870
15859375110
15859380359
15859388721
15859394824
15859402698
15859411059
15859419910
15859427478
15859434741
15859441272
15859448901
15859455371
15859460986
15859468066
15859475757
15859484240
15859493701
15859500842
15859511401
15859517749
15859525683
15859535266
15859541064
15859549731
15859557238
15859564501
15859571337
15859578845
15859585192
15859592272
15859599658
15859606921
15859613329
15859620104
15859626818
15859633227
15859640063
15859648119
15859654528
15859661608
15859668810
15859676562
15859682909
15859688647
15859696520
15859702746
15859709032
15859715929
15859722399
15859731432
15859739062
15859746996
15859752916
15859761095
15859768297
15859774279
15859779711
15859787645
15859793688
15859802477
15859810411
15859815783
15859823351
15859829088
15859836840
15859842394
15859850634
15859855516
15859862657
15859870592
15859875597
15859883104
15859888048
15859895922
15859902635
15859909593
15859916002
15859923143
15859930467
15859936693
15859945116
15859951219
15859958727
15859965746
15859970995
15859977403
15859984972
15859992296
15859998460
15860004442
15860010179
15860018053
15860023607
15860032091
15860039537
15860049547
15860056993
15860063707
15860071153
15860078111
15860083177
15860092454
15860098436
15860103929
15860112535
15860117540
15860126878
15860136644
15860143296
15860153001
15860160081
15860166551
15860171006
15860178208
15860184068
15860192430
15860199815
15860213181
15860221055
15860228074
15860234483
15860244004
15860250779
15860258530
15860265305
15860274583
15860280747
15860287034
15860293076
15860301377
15860306260
15860311570
15860317795
15860321824
15860327500
15860332749
15860337205
15860343857
15860348130
15860352952
15860357895
15860362290
15860367783
15860373520
15860379868
15860385422
15860392014
15860396653
15860405991
15860412033
15860417588
15860423447
15860430283
15860435654
15860440354
15860445359
15860451401
15860456162
15860461716
15860468125
15860473984
15860479538
15860484726
15860488510
15860493942
15860500107
15860506516
15860511765
15860518356
15860523239
15860531662
15860536423
15860542160
15860547470
15860553940
15860559128
15860565292
15860568405
15860574814
15860580490
15860585617
15860592514
15860596786
15860602768
15860606186
15860613571
15860619186
15860623459
15860629501
15860634445
15860639999
15860647323
15860652694
15860657516
15860662399
15860669235
15860674545
15860679794
15860685531
15860690353
15860695724
15860700851
15860706527
15860714096
15860720138
15860727279
15860731735
15860737472
15860742782
15860746871
15860752304
15860756393
15860762985
15860768417
15860775131
15860779830
15860785446
15860791549
15860796066
15860801376
15860808212
15860814864
15860821151
15860826583
15860832198
15860839645
15860846969
15860853439
15860858810
15860865585
15860870650
15860877303
15860882735
15860889266
15860896468
15860901473
15860907699
15860912398
15860919723
15860923690
15860929183
15860936324
15860942916
15860948531
15860953841
15860959884
15860966170
15860970992
15860977340
15860982833
15860987960
15860994735
15861004073
15861009017
15861015303
15861018660
15861024520
15861030806
15861036910
15861044417
15861049422
15861054671
15861060469
15861066756
15861073409
15861078902
15861083541
15861090315
15861096236
15861103072
15861109053
15861115218
15861121382
15861128767
15861134932
15861141036
15861146712
15861152388
15861158064
15861162398
15861168745
15861173872
15861180342
15861185225
15861191634
15861198897
15861204390
15861210493
15861215742
15861220625
15861226118
15861231917
15861238814
15861245711
15861255232
15861259932
15861266279
15861270369
15861276777
15861280928
15861287642
15861295332
15861301191
15861307234
15861312300
15861317183
15861323164
15861329878
15861335737
15861343489
15861350752
15861356489
15861361494
15861366682
15861371748
15861374433
15861381758
15861389814
15861398115
15861405378
15861411604
15861416792
15861421125
15861426557
15861433759
15861439253
15861442182
15861449262
15861455610
15861460859
15861466413
15861475935
15861484724
15861491621
15861495100
15861505537
15861509077
15861518598
15861523847
15861532941
15861540449
15861549421
15861556745
15861561689
15861570783
15861577497
15861583905
15861591718
15861599958
15861606672
15861613202
15861621320
15861628461
15861634809
15861642438
15861651898
15861656537
15861665875
15861671796
15861680158
15861685956
15861694074
15861699994
15861707196
15861715070
15861720075
15861728192
15861733136
15861740949
15861748883
15861757428
15861764874
15861770673
15861778363
15861785077
15861792279
15861798810
15861806134
15861814313
15861821515
15861828595
15861834210
15861842389
15861851483
15861861004
15861868268
15861875897
15861882794
15861893597
15861901287
15861910748
15861917767
15861925396
15861934124
15861940228
15861947491
15861955487
15861961285
15861969891
15861978741
15861984966
15861992413
15862001324
15862009319
15862017010
15862023235
15862030743
15862039410
15862046490
15862052776
15862059063
15862067852
15862075115
15862082012
15862089092
15862097637
15862104534
15862112346
15862118023
15862125652
15862132671
15862143413
15862150310
15862157146
15862165569
15862171734
15862178325
15862185222
15862192180
15862200969
15862208049
15862215129
15862223003
15862229595
15862237590
15862244060
15862253581
15862261211
15862269329
15862276225
15862281719
15862290264
15862298625
15862305888
15862315288
15862324443
15862329814
15862338054
15862344341
15862352946
15862359172
15862367656
15862376506
15862381755
15862389690
15862396770
15862403667
15862411418
15862418864
15862425822
15862434733
15862441508
15862449382
15862456096
15862464579
15862472270
15862481364
15862489299
15862497966
15862505717
15862513102
15862522380
15862531352
15862539653
15862549906
15862555461
15862565531
15862574442
15862580729
15862589762
15862600749
15862610209
15862619669
15862625712
15862633524
15862641764
15862650980
15862657877
15862666972
15862673258
15862682658
15862692240
15862700236
15862709208
15862716959
15862728312
15862734171
15862742228
15862749186
15862755106
15862760538
15862764383
15862771280
15862776468
15862779398
15862787821
15862793863
15862799906
15862804056
15862810526
15862817118
15862822367
15862828470
15862834146
15862839090
15862845194
15862850809
15862856912
15862863382
15862869242
15862875589
15862882181
15862887796
15862894815
15862900064
15862907938
15862913431
15862920267
15862927286
15862933023
15862937967
15862943704
15862948526
15862954813
15862958902
15862964456
15862971475
15862976724
15862981973
15862988260
15862993692
15862999612
15863005350
15863011270
15863016885
15863022806
15863027566
15863032937
15863038308
15863044168
15863047281
15863056375
15863061136
15863067300
15863073037
15863078775
15863082010
15863091592
15863096475
15863104654
15863109536
15863114724
15863122720
15863129373
15863134622
15863141275
15863147195
15863154153
15863158608
15863164468
15863171182
15863175637
15863180764
15863185891
15863192666
15863201699
15863207620
15863214333
15863220925
15863227639
15863234048
15863239846
15863246377
15863251504
15863258462
15863262856
15863270241
15863276467
15863281289
15863286172
15863294106
15863300576
15863307717
15863313882
15863317177
15863324685
15863329567
15863337136
15863344216
15863348183
15863356484
15863360451
15863367836
15863373146
15863380227
15863384316
15863391152
15863396950
15863402626
15863408669
15863414711
15863420815
15863425881
15863429665
15863437783
15863443947
15863450539
15863455422
15863461281
15863466591
15863473671
15863477089
15863483925
15863489052
15863496193
15863500832
15863506752
15863512123
15863518166
15863523476
15863528847
15863535683
15863540932
15863546120
15863552406
15863558510
15863565041
15863571510
15863576149
15863584144
15863591530
15863600624
15863606117
15863611671
15863617775
15863623329
15863629005
15863635841
15863641762
15863648536
15863654396
15863659889
15863662941
15863669716
15863675026
15863681190
15863687233
15863694069
15863699379
15863705055
15863709266
15863713600
15863720069
15863725074
15863731727
15863738868
15863745765
15863752479
15863758033
15863764015
15863771461
15863776954
15863784950
15863789527
15863794105
15863801551
15863806800
15863811439
15863818702
15863823402
15863829139
15863837806
15863844947
15863852027
15863856910
15863862220
15863868751
15863875220
15863880897
15863886817
15863892737
15863898414
15863904212
15863910132
15863915626
15863920691
15863932105
15863937781
15863943885
15863949500
15863955420
15863963050
15863970130
15863979834
15863985938
15863994910
15864001990
15864012976
15864019568
15864028723
15864035681
15864042578
15864052771
15864059790
15864069190
15864077918
15864085791
15864093176
15864101172
15864109290
15864116858
15864124060
15864133337
15864139807
15864147192
15864154028
15864161780
15864168921
15864178381
15864184363
15864193823
15864201697
15864209204
15864216162
15864225073
15864232336
15864239111
15864246008
15864254431
15864262915
15864268469
15864275976
15864284948
15864292273
15864300512
15864307775
15864314245
15864323034
15864329077
15864335852
15864343054
15864351171
15864358007
15864366613
15864373937
15864379797
15864386755
15864396459
15864403600
15864410436
15864419042
15864426733
15864434789
15864442724
15864451391
15864459142
15864467748
15864475072
15864485204
15864492528
15864500097
15864507238
15864517553
15864525976
15864532873
15864540014
15864550023
15864558324
15864567662
15864576207
15864584142
15864592382
15864599462
15864607701
15864615514
15864624059
15864634496
15864642430
15864650670
15864660008
15864672032
15864679967
15864688878
15864696813
15864705541
15864712926
15864718480
15864727086
15864735081
15864741917
15864749242
15864756749
15864763707
15864771702
15864777379
15864785496
15864793553
15864799168
15864806065
15864816502
15864824803
15864832554
15864840245
15864847447
15864855137
15864862523
15864872837
15864880467
15864889500
15864896580
15864903477
15864910557
15864919529
15864926060
15864935642
15864944126
15864950352
15864957005
15864965977
15864974217
15864982334
15864990330
15864998081
15865007237
15865015476
15865023472
15865033482
15865040440
15865047337
15865058018
15865065586
15865074924
15865081089
15865089878
15865095432
15865104770
15865112217
15865120823
15865130161
15865137974
15865145786
15865154514
15865161472
15865168369
15865177036
15865184421
15865192051
15865201145
15865208164
15865215122
15865222385
15865231723
15865238620
15865246433
15865253513
15865263034
15865270969
15865276706
15865281589
15865287509
15865292148
15865299289
15865306064
15865314059
15865319553
15865325229
15865331577
15865336093
15865342990
15865349155
15865353000
15865359164
15865363864
15865369113
15865374484
15865379916
15865388461
15865393588
15865398654
15865402743
15865409640
15865413241
15865419711
15865426669
15865431857
15865436129
15865443026
15865447482
15865452914
15865459384
15865466769
15865471774
15865476718
15865483004
15865488864
15865493747
15865498141
15865503451
15865508578
15865515414
15865521090
15865526339
15865532199
15865537326
15865542147
15865549166
15865554965
15865561007
15865566256
15865571261
15865576388
15865581576
15865586764
15865592135
15865597567
15865602694
15865607882
15865613619
15865620333
15865627230
15865633334
15865640353
15865644930
15865649996
15865656466
15865660189
15865668429
15865673861
15865682528
15865688326
15865693575
15865698885
15865702059
15865708773
15865713289
15865719149
15865726412
15865732943
15865737703
15865743685
15865747408
15865753634
15865758883
15865765657
15865770784
15865777437
15865782259
15865788546
15865795259
15865805147
15865812410
15865818270
15865823458
15865826082
15865834627
15865841524
15865847505
15865856050
15865861116
15865867708
15865872102
15865878572
15865882967
15865887727
15865903597
15865909456
15865915926
15865922395
15865927400
15865933015
15865937410
15865942110
15865947115
15865951570
15865955904
15865960054
15865962251
15865969514
15865975557
15865979890
15865985689
15865991792
15865996431
15866000215
15866006563
15866011445
15866015962
15866022065
15866025606
15866031160
15866035493
15866040681
15866047273
15866051790
15866056794
15866061616
15866067292
15866073518
15866078462
15866084321
15866089997
15866096528
15866102143
15866106538
15866111665
15866115510
15866120027
15866127961
15866134248
15866139802
15866145173
15866151399
15866156587
15866163178
15866167268
15866173310
15866178315
15866183198
15866187470
15866190949
15866195588
15866201569
15866207978
15866212678
15866218049
15866222504
15866227143
15866232209
15866236726
15866242219
15866247956
15866254792
15866259003
15866265412
15866269501
15866274567
15866281525
15866286957
15866293610
15866298554
15866304413
15866311310
15866319245
15866326447
15866334382
15866342499
15866352265
15866360138
15866371857
15866378876
15866387177
15866394013
15866404084
15866410919
15866418427
15866426911
15866434052
15866441010
15866449738
15866456452
15866467682
15866476288
15866484650
15866492889
15866500946
15866507355
15866515778
15866521881
15866531158
15866539032
15866546234
15866558807
15866565643
15866573517
15866583099
15866590484
15866597137
15866605804
15866611664
15866620025
15866625702
15866635101
15866640472
15866649505
15866657379
15866666168
15866674102
15866680755
15866688018
15866694305
15866702056
15866709259
15866718963
15866727020
15866733123
15866739166
15866748443
15866754852
15866763946
15866768707
15866778533
15866784454
15866792815
15866800994
15866810088
15866814300
15866826629
15866832976
15866840850
15866848052
15866855193
15866861419
15866868377
15866876555
15866885283
15866891387
15866899627
15866907134
15866913054
15866922332
15866928435
15866935943
15866940581
15866949797
15866957366
15866964324
15866969817
15866979888
15866986052
15866996306
15867004485
15867013457
15867019255
15867028716
15867035246
15867044341
15867050505
15867059783
15867066680
15867075408
15867085845
15867097624
15867108427
15867116240
15867126189
15867132536
15867141997
15867150664
15867157988
15867164030
15867173857
15867182341
15867189299
15867196623
15867204497
15867212614
15867221525
15867226774
15867237028
15867245268
15867253386
15867260954
15867268339
15867277067
15867284513
15867291410
15867298796
15867306059
15867316069
15867323149
15867330717
15867334806
15867346464
15867353300
15867360929
15867368070
15867375761
15867383878
15867391630
15867397855
15867404813
15867412870
15867420255
15867426542
15867436002
15867442289
15867450712
15867459379
15867466764
15867472806
15867481168
15867487394
15867493986
15867503141
15867510648
15867520170
15867527860
15867533292
15867542081
15867549894
15867557401
15867563993
15867574308
15867583890
15867593167
15867602506
15867610929
15867617826
15867624356
15867633206
15867641751
15867647428
15867656095
15867664761
15867669522
15867677091
15867683133
15867687283
15867692349
15867699490
15867704861
15867710660
15867715726
15867722379
15867727139
15867733304
15867739041
15867746182
15867750882
15867756497
15867762967
15867767483
15867772793
15867779873
15867785245
15867792325
15867797635
15867802151
15867807339
15867813138
15867819119
15867825222
15867832547
15867837735
15867844387
15867849514
15867855740
15867860379
15867865872
15867873318
15867878750
15867882351
15867889370
15867895169
15867901150
15867906948
15867913174
15867918789
15867927029
15867932217
15867937954
15867943020
15867948330
15867958157
15867964016
15867970303
15867976772
15867984951
15867991848
15868000210
15868005886
15868016628
15868022060
15868026638
15868032375
15868036220
15868040798
15868046169
15868050991
15868056118
15868062466
15868068203
15868073757
15868077846
15868083950
15868090297
15868095485
15868101223
15868104824
15868111355
15868115993
15868122158
15868125881
15868131740
15868136440
15868143581
15868149135
15868154140
15868159206
15868165248
15868170192
15868175563
15868181606
15868187404
15868192287
15868197658
15868201747
15868208095
15868214382
15868220424
15868225002
15868230678
15868236415
15868241725
15868246730
15868252529
15868259425
15868265224
15868270473
15868276698
15868281642
15868289699
15868294215
15868302150
15868306789
15868312831
15868320705
15868326259
15868330775
15868336818
15868341762
15868347865
15868354823
15868360988
15868368861
15868375270
15868380275
15868386622
15868390895
15868397853
15868405787
15868410914
15868420375
15868427089
15868433009
15868438624
15868443141
15868449427
15868456019
15868459925
15868467006
15868473048
15868480006
15868485072
15868492884
15868497828
15868502955
15868510096
15868515711
15868522181
15868528834
15868534754
15868539271
15868545130
15868550562
15868556178
15868562830
15868567530
15868574427
15868578211
15868584803
15868591761
15868597742
15868602503
15868609644
15868614588
15868620997
15868625025
15868631312
15868637415
15868644190
15868649134
15868657496
15868662012
15868668787
15868674097
15868680933
15868685999
15868693384
15868698877
15868705042
15868711023
15868717127
15868723353
15868728540
15868734461
15868739954
15868746912
15868752893
15868758570
15868768091
15868773828
15868778223
15868785181
15868791834
15868797693
15868803125
15868809351
15868813989
15868820886
15868829248
15868835413
15868844019
15868850244
15868859644
15868868555
15868874597
15868883081
15868889124
15868899622
15868905237
15868912744
15868922144
15868930017
15868935998
15868945581
15868951807
15868960901
15868969934
15868977807
15868987512
15868995202
15869002221
15869010461
15869018213
15869023462
15869032068
15869040612
15869052392
15869063012
15869068811
15869077111
15869084680
15869092065
15869101281
15869109155
15869115563
15869122949
15869130578
15869137780
15869146142
15869154138
15869162377
15869172082
15869180383
15869186730
15869193383
15869201501
15869208886
15869215600
15869225365
15869232995
15869241173
15869247338
15869254967
15869261010
15869272790
15869280358
15869288109
15869295739
15869301720
15869308983
15869316002
15869324791
15869332116
15869340722
15869346337
15869354454
15869360131
15869366845
15869375206
15869385277
15869393700
15869399987
15869408104
15869415856
15869425682
15869433922
15869442162
15869452355
15869459496
15869468346
15869475487
15869484154
15869491051
15869500084
15869508507
15869515404
15869523033
15869529747
15869535728
15869542869
15869551597
15869560081
15869567344
15869574302
15869581444
15869588951
15869596214
15869606468
15869615135
15869623253
15869633567
15869640281
15869648094
15869656578
15869664695
15869674095
15869681358
15869690086
15869697532
15869705772
15869713340
15869720359
15869729820
15869736534
15869744468
15869753440
15869759666
15869767844
15869778770
15869788474
15869795188
15869802146
15869808555
15869817527
15869824607
15869832664
15869839805
15869849570
15869856467
15869866843
15869874351
15869884482
15869891562
15869901328
15869906882
15869916404
15869924582
15869930686
15869938559
15869947959
15869956198
15869965903
15869973899
15869981223
15869989096
15869998007
15870007468
15870014487
15870023032
15870030783
15870038962
15870046591
15870054587
15870063010
15870071249
15870078879
15870087912
15870097495
15870111166
15870122336
15870131918
15870141440
15870151938
15870161154
15870170065
15870178732
15870188131
15870198568
15870205465
15870212973
15870219442
15870227926
15870235922
15870242697
15870250998
15870260946
15870267904
15870274984
15870282675
15870292257
15870300802
15870309042
15870317831
15870325643
15870334188
15870342123
15870349996
15870356893
15870364706
15870372091
15870381796
15870389059
15870398458
15870404562
15870413412
15870421834
15870428426
15870436239
15870445394
15870454854
15870461568
15870469442
15870478048
15870485921
15870494649
15870503682
15870507650
15870521322
15870531942
15870541219
15870549398
15870557088
15870565023
15870572347
15870582540
15870589803
15870597066
15870604695
15870614400
15870622518
15870630879
15870638814
15870648763
15870656819
15870665242
15870675740
15870682027
15870691243
15870700276
15870709492
15870717671
15870726582
15870734639
15870741048
15870751057
15870758137
15870767537
15870774922
15870784260
15870790303
15870799763
15870808980
15870815083
15870823506
15870829609
15870839009
15870847859
15870855915
15870860249
15870870869
15870877644
15870886494
15870894673
15870901081
15870909748
15870917256
15870924275
15870934345
15870945515
15870952778
15870960407
15870967732
15870974995
15870982746
15870990009
15870998249
15871007954
15871014790
15871022480
15871030109
15871037311
15871045429
15871053913
15871061725
15871071430
15871080219
15871088642
15871097431
15871104877
15871111896
15871120868
15871130207
15871138263
15871145649
15871154316
15871163471
15871172565
15871178607
15871187458
15871197406
15871205524
15871214008
15871221210
15871229511
15871237262
15871245624
15871253436
15871261127
15871271564
15871277789
15871287738
15871294574
15871304217
15871311664
15871320697
15871326617
15871335284
15871342670
15871351642
15871358295
15871367145
15871373797
15871383014
15871389544
15871398394
15871407184
15871413165
15871422137
15871431048
15871439776
15871448321
15871453448
15871458636
15871463336
15871468158
15871473956
15871478839
15871483233
15871489154
15871494403
15871499835
15871503314
15871509539
15871514666
15871519488
15871524981
15871529193
15871534319
15871539568
15871543353
15871548785
15871554766
15871558978
15871564898
15871570269
15871574786
15871579729
15871585955
15871592913
15871597735
15871606097
15871610979
15871619707
15871625201
15871632403
15871638140
15871649737
15871655901
15871663042
15871671038
15871677447
15871684405
15871691240
15871696001
15871704973
15871710344
15871717363
15871724260
15871731462
15871737688
15871744036
15871751482
15871757219
15871763933
15871771746
15871778765
15871786089
15871794145
15871800310
15871808428
15871816484
15871821977
15871829973
15871839617
15871848833
15871855913
15871864092
15871870805
15871878740
15871885332
15871891801
15871901262
15871909624
15871916276
15871925676
15871933977
15871941789
15871949663
15871957170
15871966569
15871973832
15871979631
15871988176
15871994584
15872000871
15872006242
15872016618
15872024308
15872037736
15872044694
15872050553
15872057389
15872065446
15872074174
15872081437
15872090226
15872095964
15872103898
15872111466
15872116776
15872123307
15872134782
15872144914
15872151444
15872158463
15872166276
15872174210
15872181962
15872191117
15872198258
15872204301
15872212846
15872219804
15872227616
15872235856
15872244706
15872251176
15872258988
15872266984
15872274247
15872281998
15872288834
15872298600
15872306962
15872315323
15872322648
15872331070
15872337601
15872349381
15872355362
15872364945
15872373123
15872380265
15872387039
15872395096
15872401077
15872410538
15872417435
15872424454
15872431534
15872438248
15872447342
15872454849
15872461075
15872469132
15872477676
15872486221
15872490677
15872501297
15872509048
15872516189
15872524490
15872529495
15872539505
15872545547
15872555557
15872562576
15872569839
15872579544
15872589126
15872595535
15872607620
15872621841
15872632217
15872641311
15872649856
15872661392
15872675979
15872686904
15872695938
15872704727
15872712722
15872720291
15872731460
15872737624
15872744521
15872752273
15872759292
15872765701
15872776565
15872787795
15872797622
15872805495
15872813125
15872819778
15872828933
15872835769
15872843642
15872849563
15872857192
15872863479
15872870498
15872877456
15872885207
15872892226
15872900222
15872904433
15872909011
15872916823
15872920424
15872926528
15872932204
15872937392
15872942275
15872948806
15872952773
15872959059
15872964369
15872970473
15872974257
15872979628
15872984328
15872989821
15872993849
15872999526
15873004714
15873009108
15873013869
15873018508
15873022231
15873028334
15873034010
15873039443
15873043227
15873051161
15873057326
15873063307
15873070265
15873074904
15873081923
15873086134
15873091566
15873095595
15873101942
15873106459
15873112440
15873116469
15873122023
15873127943
15873133131
15873139906
15873144179
15873148573
15873154005
15873159376
15873164076
15873171888
15873178541
15873183058
15873187697
15873194349
15873198927
15873203383
15873208509
15873213392
15873218092
15873224195
15873228163
15873233046
15873239271
15873244825
15873249647
15873255445
15873260206
15873269178
15873275465
15873281324
15873286390
15873291822
15873298048
15873302686
15873309034
15873314832
15873321485
15873326429
15873331129
15873338331
15873343092
15873352003
15873359693
15873365430
15873371107
15873375745
15873380933
15873385694
15873392286
15873397901
15873403638
15873408887
15873412916
15873418836
15873424024
15873432325
15873439649
15873443860
15873449170
15873452100
15873460340
15873465467
15873470533
15873477491
15873482984
15873488477
15873493726
15873497876
15873504041
15873509412
15873514234
15873521009
15873527051
15873531629
15873536512
15873542005
15873549512
15873555799
15873561780
15873567823
15873573072
15873578443
15873583936
15873589429
15873594190
15873600232
15873608777
15873612683
15873619946
15873624524
15873629651
15873635449
15873640698
15873645337
15873651379
15873657666
15873662976
15873667920
15873674329
15873678296
15873683362
15873688977
15873694104
15873698743
15873706189
15873710767
15873718335
15873724621
15873730115
15873734692
15873742932
15873749951
15873755383
15873762768
15873767468
15873774182
15873777417
15873785168
15873789990
15873797070
15873803418
15873810437
15873814770
15873821911
15873831311
15873839978
15873847302
15873852612
15873859875
15873865002
15873873181
15873881481
15873887768
15873892773
15873901196
15873906689
15873912426
15873918286
15873924572
15873930920
15873938305
15873944470
15873948376
15873955395
15873960156
15873964794
15873971630
15873976330
15873980480
15873985058
15873990429
15873997570
15874006664
15874013927
15874020275
15874027721
15874033825
15874040233
15874047313
15874056774
15874064159
15874070934
15874077770
15874085399
15874091747
15874099132
15874105297
15874112926
15874120617
15874128795
15874135936
15874144054
15874151256
15874158519
15874165538
15874173534
15874177684
15874186840
15874193981
15874202159
15874213878
15874221813
15874229808
15874235545
15874243541
15874249767
15874257396
15874265025
15874270091
15874279796
15874286937
15874294322
15874301524
15874309520
15874316722
15874325389
15874333140
15874341563
15874347606
15874355479
15874363536
15874372325
15874379771
15874388865
15874397105
15874403148
15874409495
15874419383
15874425669
15874433360
15874439280
15874445872
15874454112
15874459788
15874468089
15874475779
15874482676
15874488841
15874499156
15874506724
15874517649
15874526438
15874536082
15874542613
15874550608
15874556467
15874562693
15874571421
15874577036
15874586253
15874591685
15874600107
15874606760
15874614634
15874621348
15874633005
15874644175
15874651743
15874659250
15874666453
15874673472
15874680796
15874692453
15874698862
15874705454
15874715220
15874721018
15874729013
15874735117
15874744028
15874752329
15874760569
15874764719
15874773447
15874779306
15874790293
15874796518
15874803964
15874810922
15874819223
15874826730
15874833139
15874842355
15874849863
15874858774
15874866769
15874874582
15874881784
15874887460
15874896371
15874902963
15874912668
15874919504
15874926279
15874933908
15874940622
15874950509
15874961862
15874971872
15874978524
15874985605
15874992196
15875001291
15875011300
15875019723
15875027536
15875034372
15875042489
15875049203
15875056344
15875062692
15875070687
15875079415
15875087655
15875107125
15875116952
15875125558
15875136178
15875144540
15875152169
15875162179
15875168404
15875175545
15875182198
15875187997
15875196542
15875203561
15875211129
15875218941
15875225045
15875233224
15875242074
15875251534
15875260201
15875268319
15875273324
15875278939
15875285592
15875291878
15875297066
15875303109
15875310006
15875315316
15875321541
15875325997
15875332894
15875338936
15875343941
15875349068
15875354378
15875359627
15875365059
15875369698
15875375069
15875381111
15875386116
15875392464
15875399239
15875403633
15875410286
15875416145
15875422066
15875425789
15875431404
15875435310
15875441414
15875446236
15875452583
15875459724
15875463692
15875468758
15875474129
15875480171
15875486092
15875493172
15875498604
15875504097
15875509102
15875514778
15875520393
15875526558
15875533150
15875540230
15875546211
15875555671
15875559273
15875565742
15875570259
15875575264
15875580452
15875585212
15875590156
15875595649
15875601081
15875606636
15875611030
15875617500
15875622444
15875628303
15875632698
15875638435
15875643135
15875649482
15875654365
15875660163
15875666084
15875672370
15875676948
15875682624
15875687446
15875692817
15875699043
15875705146
15875710212
15875717475
15875722419
15875727363
15875732002
15875738349
15875743476
15875749274
15875755561
15875761359
15875770026
15875775153
15875781623
15875785834
15875793342
15875798041
15875803290
15875810371
15875814704
15875820380
15875824653
15875830451
15875835456
15875844916
15875850043
15875856818
15875862494
15875866645
15875872870
15875877265
15875884040
15875888862
15875893439
15875897712
15875904425
15875908393
15875913703
15875918586
15875926093
15875931464
15875939765
15875943549
15875950080
15875954596
15875961798
15875969367
15875975287
15875981269
15875986518
15875990790
15875996771
15876002142
15876008490
15876013800
15876019660
15876024420
15876030768
15876035223
15876041571
15876044684
15876050848
15876058905
15876063422
15876067572
15876073737
15876078680
15876083990
15876089545
15876099798
15876105780
15876111273
15876116949
15876122381
15876128424
15876133429
15876138189
15876145147
15876151739
15876158453
15876163397
15876169806
15876174994
15876180426
15876185431
15876190496
15876198126
15876204718
15876210394
15876214972
15876221563
15876225225
15876231939
15876238653
15876246038
15876251287
15876254095
15876260748
15876264959
15876271246
15876276251
15876284185
15876290960
15876296758
15876302191
15876308172
15876313848
15876319891
15876326849
15876334173
15876337408
15876345037
15876349859
15876356817
15876361333
15876367254
15876375677
15876381963
15876391973
15876398870
15876406621
15876414312
15876424688
15876426885
15876441106
15876447881
15876457647
15876467595
15876475652
15876483342
15876491826
15876498662
15876508916
15876515325
15876521856
15876532720
15876539739
15876549687
15876556340
15876565862
15876573125
15876580998
15876588506
15876597722
15876607060
15876615239
15876623601
15876631596
15876639043
15876648015
15876654240
15876663213
15876671086
15876678410
15876684331
15876693852
15876700261
15876708928
15876716679
15876724736
15876730839
15876737919
15876746586
15876753178
15876762578
15876770268
15876777531
15876786442
15876794377
15876804448
15876811772
15876820317
15876828923
15876835942
15876845707
15876849491
15876861210
15876865666
15876876774
15876884037
15876889591
15876898502
15876906620
15876912968
15876922001
15876929142
15876938541
15876946964
15876955753
15876962345
15876970097
15876979862
15876987919
15876996097
15877003666
15877013065
15877018986
15877029850
15877035343
15877043522
15877051395
15877060184
15877069828
15877078128
15877086795
15877095585
15877103885
15877111820
15877117618
15877125980
15877136295
15877144413
15877151493
15877161380
15877170535
15877179386
15877187076
15877195194
15877202274
15877212222
15877218692
15877226016
15877235477
15877242984
15877253055
15877260440
15877268680
15877280521
15877287418
15877297488
15877304385
15877313174
15877322024
15877328433
15877338382
15877346621
15877354800
15877361575
15877371646
15877378787
15877386233
15877395327
15877403506
15877411502
15877419375
15877429568
15877436892
15877443301
15877453738
15877460452
15877468752
15877477542
15877486331
15877493960
15877502078
15877508486
15877517764
15877524783
15877533389
15877543642
15877549380
15877558962
15877565676
15877575442
15877583315
15877590822
15877598696
15877607607
15877615664
15877624636
15877632937
15877641054
15877649721
15877655947
15877662783
15877673281
15877681154
15877689455
15877698977
15877706789
15877714785
15877722414
15877731935
15877740053
15877748537
15877755739
15877763857
15877772524
15877780702
15877788637
15877797365
15877804384
15877815553
15877822206
15877828066
15877835146
15877841066
15877846498
15877852174
15877856996
15877862062
15877870119
15877875062
15877881715
15877885683
15877892457
15877898439
15877903505
15877908754
15877916078
15877921510
15877926820
15877931215
15877938234
15877944215
15877950441
15877953431
15877961000
15877970216
15877975099
15877980409
15877985109
15877990236
15877997377
15878001710
15878007264
15878013673
15878018922
15878024537
15878029664
15878035218
15878041078
15878047425
15878053468
15878060182
15878067994
15878072877
15878079225
15878083863
15878089112
15878094483
15878100160
15878106202
15878112306
15878116700
15878123170
15878127808
15878135316
15878139771
15878145875
15878153077
15878157594
15878164307
15878169923
15878175965
15878182069
15878187562
15878193787
15878199708
15878205079
15878211304
15878218140
15878223816
15878228455
15878233948
15878240662
15878246460
15878252015
15878258606
15878263123
15878268006
15878275086
15878279908
15878286621
15878292237
15878298035
15878303711
15878308960
15878313538
15878321961
15878328492
15878333008
15878337952
15878345581
15878351563
15878358765
15878363220
15878369446
15878374085
15878379822
15878386719
15878391052
15878398010
15878403015
15878409973
15878415283
15878420410
15878425049
15878430786
15878436035
15878442383
15878448730
15878454285
15878458801
15878465759
15878470886
15878475769
15878482483
15878486755
15878494079
15878499695
15878505859
15878511230
15878517517
15878523926
15878530151
15878535705
15878541687
15878548279
15878553711
15878558716
15878566345
15878572265
15878580566
15878585815
15878592285
15878597473
15878604370
15878609497
15878614990
15878621643
15878626037
15878632995
15878637634
15878645996
15878652404
15878657348
15878664916
15878670959
15878677795
15878682983
15878688476
15878695007
15878700439
15878706359
15878712951
15878717345
15878724120
15878728332
15878734924
15878742065
15878747070
15878752196
15878758788
15878764770
15878771850
15878777587
15878782775
15878788146
15878794250
15878800475
15878806029
15878809386
15878817748
15878822265
15878829040
15878835265
15878841674
15878847289
15878853331
15878857726
15878864989
15878869994
15878877135
15878881835
15878887267
15878893370
15878900573
15878906310
15878910521
15878918151
15878923278
15878929320
15878934386
15878942504
15878949767
15878956542
15878962218
15878967711
15878972289
15878977843
15878984374
15878988768
15878996214
15879002318
15879006896
15879013609
15879019408
15879023802
15879029540
15879034789
15879041502
15879048460
15879057066
15879065001
15879072142
15879078673
15879088682
15879095152
15879104918
15879111571
15879122618
15879129149
15879136290
15879145750
15879153563
15879164183
15879171812
15879183226
15879190306
15879200071
15879206785
15879214292
15879223631
15879231810
15879240354
15879249266
15879257749
15879267210
15879274961
15879284544
15879291319
15879298826
15879307127
15879315488
15879323728
15879331907
15879340208
15879348264
15879356626
15879364561
15879372983
15879381406
15879391050
15879398130
15879405149
15879412961
15879420102
15879429563
15879435239
15879445432
15879452024
15879461667
15879467893
15879476621
15879484189
15879494687
15879501706
15879509885
15879517820
15879525449
15879529477
15879539670
15879545774
15879555356
15879563962
15879568784
15879577939
15879585507
15879593686
15879602170
15879608151
15879615598
15879625119
15879632504
15879640134
15879647885
15879654782
15879662533
15879671689
15879679623
15879686825
15879695126
15879702206
15879710446
15879717404
15879724545
15879732419
15879741147
15879748837
15879755490
15879764950
15879772580
15879780819
15879788632
15879796261
15879803768
15879811337
15879817379
15879825314
15879834713
15879842770
15879848995
15879858029
15879864132
15879871212
15879879940
15879886044
15879896542
15879904415
15879913021
15879919369
15879928768
15879937008
15879945003
15879952877
15879960751
15879967953
15879978634
15879985714
15879994137
15880001034
15880009090
15880015865
15880026912
15880036312
15880042476
15880051021
15880059932
15880068233
15880075313
15880085506
15880093319
15880102901
15880111690
15880118282
15880128108
15880134395
15880141109
15880150630
15880157955
15880166011
15880175472
15880185298
15880193660
15880204463
15880212154
15880219478
15880228267
15880235347
15880241512
15880251338
15880258357
15880265254
15880271663
15880282954
15880290889
15880301326
15880308406
15880315425
15880322566
15880332942
15880339900
15880347468
15880353755
15880363398
15880370417
15880378413
15880385798
15880394465
15880402888
15880410578
15880416682
15880424189
15880433528
15880440913
15880447199
15880455683
15880461726
15880469538
15880479121
15880484553
15880491938
15880495844
15880501948
15880505976
15880511958
15880517268
15880522883
15880528742
15880534663
15880543513
15880550104
15880555415
15880560236
15880565790
15880572504
15880577814
15880583185
15880589228
15880594050
15880598383
15880604853
15880609858
15880614802
15880619745
15880625849
15880632258
15880637568
15880642023
15880648676
15880653803
15880659296
15880664301
15880670099
15880677423
15880683100
15880688349
15880695246
15880699579
15880706232
15880710993
15880716364
15880724726
15880729425
15880736017
15880740717
15880747553
15880753229
15880758478
15880765009
15880771234
15880778070
15880783441
15880789911
15880794794
15880799249
15880805658
15880810114
15880815546
15880820917
15880826837
15880833795
15880840143
15880845880
15880851495
15880858148
15880864252
15880870904
15880875726
15880881219
15880886041
15880891290
15880897149
15880901239
15880909479
15880915094
15880921441
15880927057
15880932000
15880936334
15880943109
15880949090
15880956659
15880961847
15880967401
15880972772
15880978387
15880985650
15880990411
15880996453
15881002069
15881007135
15881014337
15881019342
15881025689
15881030206
15881035272
15881042474
15881046075
15881054803
15881060357
15881065423
15881070733
15881076531
15881084344
15881091851
15881096917
15881104791
15881110223
15881116326
15881122552
15881128350
15881134026
15881140801
15881145745
15881152215
15881157952
15881163323
15881169854
15881174431
15881181389
15881186150
15881193413
15881198723
15881204278
15881209282
15881216424
15881222649
15881227959
15881232659
15881238274
15881244683
15881251214
15881256768
15881266900
15881272026
15881279168
15881283928
15881290459
15881295708
15881301506
15881310723
15881316765
15881322258
15881329766
15881334587
15881340142
15881346062
15881351250
15881357720
15881362663
15881369743
15881374809
15881381767
15881389397
15881394280
15881399956
15881406792
15881412346
15881418755
15881423454
15881429253
15881435173
15881441399
15881447624
15881454155
15881461235
15881466728
15881472404
15881478508
15881486076
15881491691
15881497856
15881503349
15881509819
15881519096
15881524711
15881530449
15881538627
15881543205
15881549858
15881555351
15881562065
15881567192
15881572319
15881577629
15881583488
15881588615
15881595207
15881599845
15881605705
15881611503
15881617118
15881623283
15881628410
15881633110
15881638297
15881643363
15881650627
15881655753
15881660880
15881666190
15881671439
15881675773
15881681388
15881687614
15881695243
15881701469
15881710563
15881717155
15881729972
15881736686
15881746268
15881752189
15881761405
15881777213
15881782767
15881791312
15881799369
15881806022
15881815116
15881821891
15881832938
15881838004
15881847709
15881855765
15881863150
15881872062
15881879691
15881887442
15881895926
15881905265
15881913443
15881920523
15881929251
15881935782
15881946036
15881952689
15881962149
15881968619
15881977835
15881984305
15881993033
15882002921
15882009085
15882018668
15882025565
15882035208
15882043082
15882051077
15882060660
15882068106
15882075979
15882083609
15882090933
15882099234
15882108999
15882118155
15882126700
15882134878
15882140799
15882149710
15882158743
15882167715
15882175222
15882183340
15882192739
15882202139
15882208242
15882215017
15882224478
15882233084
15882241751
15882251333
15882258718
15882266897
15882275564
15882283560
15882290090
15882299917
15882307974
15882315725
15882322805
15882330617
15882338613
15882346059
15882352529
15882362295
15882371084
15882378713
15882384633
15882391164
15882400625
15882407644
15882416311
15882422231
15882431325
15882438100
15882446889
15882453176
15882462758
15882469838
15882478688
15882484853
15882494252
15882501210
15882507924
15882516225
15882524343
15882532094
15882540883
15882548940
15882559010
15882564748
15882574819
15882582265
15882590260
15882598988
15882608083
15882614613
15882623036
15882631581
15882639271
15882647755
15882656056
15882663075
15882670399
15882680226
15882687733
15882695607
15882703908
15882713368
15882720143
15882728016
15882735707
15882743885
15882752125
15882760548
15882767628
15882778004
15882783680
15882794789
15882802723
15882808949
15882815418
15882825794
15882834706
15882843311
15882850269
15882860218
15882866810
15882876026
15882882435
15882889698
15882899403
15882907276
15882915089
15882923634
15882931141
15882939381
15882951160
15882957935
15882966785
15882976063
15882984180
15882988514
15882999866
15883006519
15883015491
15883024524
15883029895
15883040332
15883049488
15883056812
15883064685
15883075306
15883081958
15883091175
15883100818
15883108448
15883115467
15883123584
15883131153
15883137744
15883144702
15883150318
15883155261
15883161182
15883166126
15883173084
15883177722
15883184497
15883189746
15883196582
15883201465
15883207507
15883214954
15883220630
15883226062
15883230884
15883236560
15883241748
15883249499
15883254993
15883261218
15883266833
15883272571
15883277209
15883283008
15883287646
15883295398
15883300403
15883309436
15883317614
15883323596
15883330432
15883336596
15883342273
15883348071
15883352588
15883358813
15883370654
15883375842
15883380969
15883387866
15883393359
15883398364
15883405017
15883410937
15883417895
15883423083
15883428088
15883433825
15883439379
15883445666
15883451830
15883458483
15883464526
15883469958
15883474902
15883480456
15883485522
15883492236
15883496935
15883502062
15883509447
15883514574
15883521593
15883526354
15883531603
15883536608
15883543993
15883547900
15883555895
15883562060
15883567675
15883570727
15883578600
15883584948
15883589770
15883596178
15883601854
15883611437
15883618273
15883624437
15883631395
15883636461
15883643053
15883648302
15883654589
15883660509
15883665697
15883670153
15883676378
15883682726
15883689623
15883695604
15883702196
15883707628
15883715868
15883721239
15883726854
15883731737
15883737963
15883743700
15883750414
15883755480
15883761217
15883766527
15883773363
15883778490
15883784959
15883790086
15883796190
15883802843
15883809373
15883814806
15883819383
15883826219
15883832017
15883838914
15883844652
15883850694
15883856554
15883861070
15883866197
15883873887
15883879075
15883885606
15883890550
15883896409
15883904710
15883909715
15883915025
15883921190
15883927537
15883932603
15883938585
15883944200
15883951219
15883956895
15883963426
15883969651
15883973619
15883979112
15883988511
15883994187
15883999131
15884006272
15884011216
15884017808
15884023118
15884029405
15884034654
15884040635
15884046433
15884053391
15884059434
15884065415
15884070847
15884075974
15884081040
15884088059
15884092881
15884098924
15884105820
15884109910
15884117600
15884123582
15884129319
15884134934
15884141099
15884146714
15884153672
15884159836
15884164353
15884171616
15884178025
15884181504
15884188889
15884195969
15884201340
15884207993
15884213486
15884220505
15884226609
15884232163
15884238511
15884245896
15884253281
15884259568
15884264878
15884270676
15884276413
15884283188
15884288254
15884294236
15884299485
15884306931
15884312607
15884319870
15884324814
15884329941
15884338547
15884343430
15884350266
15884357041
15884362778
15884369492
15884375290
15884380173
15884389511
15884394394
15884402267
15884407700
15884413437
15884416977
15884425400
15884428879
15884437851
15884443405
15884448959
15884456833
15884460983
15884468857
15884474411
15884482223
15884487228
15884493637
15884499618
15884505905
15884512130
15884519027
15884526413
15884532516
15884537521
15884544662
15884550155
15884555221
15884562484
15884568039
15884574081
15884580551
15884586288
15884593002
15884599777
15884603012
15884610458
15884615158
15884623214
15884628219
15884635665
15884643844
15884649459
15884655013
15884661239
15884668868
15884674667
15884679122
15884685653
15884691451
15884697738
15884704452
15884710494
15884716659
15884722640
15884727706
15884734298
15884742538
15884749068
15884755111
15884759994
15884765853
15884773177
15884778609
15884786849
15884792098
15884797286
15884803939
15884809066
15884814010
15884821578
15884826461
15884832320
15884836593
15884844649
15884850081
15884856246
15884861922
15884867537
15884871932
15884878829
15884884505
15884892134
15884898116
15884904463
15884909285
15884915267
15884921797
15884926680
15884933516
15884938216
15884945296
15884950728
15884958113
15884964827
15884969710
15884976607
15884984908
15884994856
15884999190
15885006514
15885010542
15885017622
15885023115
15885028914
15885034102
15885040266
15885045210
15885051497
15885056319
15885062971
15885068892
15885074385
15885082503
15885088484
15885094343
15885099959
15885105208
15885111372
15885115767
15885122114
15885129561
15885136335
15885141279
15885146162
15885152632
15885157942
15885163252
15885170088
15885175825
15885181135
15885187117
15885193708
15885198896
15885203962
15885210188
15885214521
15885221723
15885228437
15885234236
15885239424
15885245161
15885251020
15885258100
15885263044
15885269025
15885276167
15885284467
15885289289
15885294599
15885301191
15885307294
15885313642
15885318220
15885325971
15885331769
15885339155
15885343915
15885349164
15885354780
15885360090
15885365339
15885373639
15885380170
15885386030
15885390180
15885397443
15885402387
15885408307
15885413068
15885419782
15885428022
15885433149
15885437604
15885445173
15885449750
15885456159
15885461103
15885466535
15885474042
15885478864
15885485334
15885490094
15885497235
15885504193
15885510053
15885516889
15885523297
15885529096
15885534711
15885540143
15885546369
15885551129
15885556806
15885561200
15885568585
15885576154
15885581220
15885585614
15885593304
15885599896
15885604291
15885612592
15885617963
15885625470
15885631207
15885636029
15885642987
15885647504
15885653119
15885658978
15885664776
15885671063
15885677960
15885683697
15885690045
15885696209
15885702923
15885708172
15885711163
15885721112
15885727337
15885732891
15885739605
15885745404
15885752179
15885757733
15885763531
15885771466
15885776654
15885784222
15885789898
15885795269
15885799908
15885806805
15885811993
15885818585
15885824566
15885830975
15885836834
15885841107
15885847393
15885853680
15885858379
15885864788
15885871014
15885879925
15885884563
15885892132
15885896648
15885902325
15885909100
15885914165
15885920269
15885925945
15885933453
15885939007
15885944256
15885949871
15885955730
15885960491
15885966595
15885974163
15885980266
15885983257
15885992290
15885997417
15886003093
15886007732
15886014019
15886019451
15886027141
15886032024
15886037700
15886044292
15886051067
15886059307
15886065715
15886071941
15886079204
15886082622
15886089641
15886094463
15886101665
15886107097
15886114665
15886123332
15886130596
15886135906
15886143718
15886149700
15886157085
15886160564
15886168803
15886174846
15886179363
15886186626
15886191936
15886197124
15886205974
15886211711
15886217815
15886225139
15886231242
15886233989
15886241313
15886247722
15886251628
15886257915
15886262858
15886267375
15886273662
15886279155
15886284099
15886289531
15886295878
15886301860
15886309062
15886314738
15886322062
15886326701
15886333354
15886338908
15886343364
15886349162
15886354411
15886361918
15886366374
15886372782
15886377177
15886382182
15886391276
15886396281
15886403178
15886408976
15886414225
15886419535
15886424845
15886431437
15886437724
15886442668
15886447367
15886453166
15886458476
15886465434
15886470805
15886478434
15886483988
15886489481
15886495158
15886500956
15886511637
15886516398
15886521342
15886529398
15886535624
15886539591
15886545939
15886552653
15886558146
15886564066
15886569620
15886575480
15886580668
15886585734
15886591898
15886595987
15886602274
15886607035
15886613871
15886618387
15886624918
15886631388
15886636209
15886642801
15886648294
15886654703
15886662332
15886669474
15886675028
15886682291
15886687113
15886693216
15886700296
15886704874
15886712259
15886718424
15886722696
15886731302
15886735819
15886741495
15886747781
15886754068
15886759866
15886765787
15886770670
15886779214
15886785257
15886792459
15886797586
15886804788
15886810525
15886816446
15886822305
15886826944
15886833841
15886838846
15886846170
15886851297
15886857828
15886863321
15886869302
15886875650
15886881082
15886886758
15886892251
15886898355
15886905008
15886909463
15886915872
15886920449
15886927285
15886932718
15886939553
15886946389
15886953103
15886957803
15886963113
15886967935
15886974710
15886979409
15886986489
15886991128
15886997781
15887001931
15887008706
15887013467
15887020059
15887024636
15887030251
15887036233
15887045510
15887053262
15887057595
15887063760
15887069985
15887076394
15887082192
15887087991
15887093423
15887099343
15887105019
15887110818
15887116372
15887122719
15887127724
15887133828
15887137185
15887146035
15887151589
15887157815
15887162575
15887169716
15887176308
15887180825
15887187722
15887192360
15887197121
15887205910
15887212258
15887218300
15887227456
15887232094
15887236916
15887244667
15887250161
15887257851
15887262734
15887267739
15887275612
15887284279
15887289833
15887296608
15887302712
15887308693
15887315041
15887321205
15887327492
15887332985
15887339211
15887344704
15887350014
15887356239
15887362099
15887368935
15887374550
15887384071
15887391029
15887396156
15887401405
15887408852
15887416847
15887428261
15887444557
15887455604
15887460975
15887470985
15887478798
15887488991
15887502906
15887510109
15887515113
15887519813
15887525795
15887529518
15887535072
15887541359
15887545814
15887549781
15887554115
15887557960
15887562660
15887566444
15887571754
15887577857
15887582557
15887586524
15887591102
15887595497
15887599342
15887604591
15887612464
15887617469
15887624183
15887628883
15887633460
15887642371
15887648902
15887655006
15887659950
15887665138
15887671424
15887676185
15887681678
15887686683
15887690589
15887696082
15887700599
15887706946
15887711097
15887717322
15887720191
15887727027
15887732520
15887738807
15887744056
15887751319
15887756751
15887763099
15887767615
15887773597
15887780799
15887786475
15887792457
15887798255
15887802771
15887808204
15887813147
15887819800
15887825660
15887831641
15887837989
15887843970
15887849463
15887856360
15887862220
15887868384
15887874549
15887879981
15887885230
15887891699
15887895178
15887902686
15887908484
15887912634
15887917517
15887924658
15887929419
15887934485
15887941992
15887947669
15887952979
15887958350
15887964636
15887971411
15887976965
15887982581
15887991309
15887995642
15888001807
15888006934
15888012366
15888018774
15888024451
15888031042
15888035986
15888039648
15888047888
15888051489
15888059546
15888063818
15888070227
15888073218
15888082312
15888088476
15888092505
15888098852
15888104101
15888109900
15888117224
15888122534
15888128454
15888134008
15888141943
15888146765
15888152929
15888157568
15888162695
15888169042
15888173376
15888177709
15888184606
15888189672
15888195471
15888203466
15888208349
15888215856
15888221594
15888225866
15888231298
15888236486
15888242040
15888246496
15888252233
15888256506
15888262365
15888268713
15888274572
15888279638
15888285375
15888292394
15888296545
15888302831
15888308813
15888314245
15888320653
15888325292
15888331457
15888339269
15888345251
15888349706
15888355382
15888360021
15888365026
15888372655
15888377416
15888382543
15888387365
15888393468
15888399267
15888405248
15888408971
15888415014
15888420934
15888429479
15888439916
15888447545
15888451451
15888456212
15888461583
15888466893
15888471898
15888477208
15888481603
15888487767
15888492406
15888499303
15888503575
15888509068
15888518773
15888523229
15888527867
15888535375
15888540074
15888546849
15888551000
15888555821
15888561375
15888566380
15888570348
15888575719
15888581212
15888584996
15888591710
15888596898
15888603001
15888607030
15888612340
15888618382
15888623326
15888630162
15888635289
15888641514
15888647557
15888653477
15888660252
15888666905
15888672459
15888676793
15888683079
15888687962
15888694920
15888699009
15888705418
15888710789
15888717198
15888722935
15888728001
15888732823
15888738987
15888743870
15888750401
15888757542
15888761753
15888767979
15888774693
15888780857
15888787937
15888793614
15888799595
15888805088
15888809117
15888815403
15888821873
15888827976
15888832432
15888839573
15888843052
15888849217
15888853855
15888861240
15888864903
15888872166
15888876438
15888882725
15888887852
15888893040
15888898472
15888904087
15888910007
15888916416
15888921482
15888928013
15888935459
15888940891
15888948154
15888952671
15888958957
15888963291
15888971592
15888975498
15888982334
15888988376
15888994907
15889000644
15889006199
15889011631
15889018711
15889024265
15889031711
15889038242
15889043369
15889048313
15889056125
15889061740
15889068332
15889074619
15889080966
15889087680
15889093723
15889098544
15889105319
15889110568
15889118015
15889122531
15889128513
15889136325
15889141818
15889146701
15889152011
15889156101
15889162448
15889166537
15889171237
15889180392
15889184665
15889191013
15889196323
15889200900
15889207614
15889212131
15889219272
15889224765
15889232211
15889236972
15889243197
15889249240
15889254855
15889259860
15889265780
15889271579
15889278354
15889284274
15889290744
15889295932
15889300631
15889307650
15889311740
15889318209
15889324069
15889330661
15889335788
15889341586
15889347506
15889353488
15889359835
15889365634
15889373019
15889382846
15889389254
15889395114
15889400851
15889405612
15889411227
15889418734
15889425448
15889435214
15889441134
15889447482
15889454134
15889459750
15889465609
15889472140
15889477755
15889482760
15889489291
15889493868
15889499789
15889505831
15889512118
15889519503
15889525240
15889530855
15889535982
15889541537
15889547091
15889552950
15889559298
15889565706
15889571139
15889577242
15889583651
15889588045
15889592562
15889599459
15889606051
15889610384
15889615633
15889624788
15889631197
15889637606
15889644136
15889649568
15889654085
15889659212
15889665987
15889671541
15889676973
15889683199
15889691072
15889696993
15889702791
15889709139
15889718111
15889724275
15889729341
15889735628
15889741731
15889747041
15889752535
15889758028
15889763216
15889769746
15889774751
15889779817
15889785249
15889790315
15889794466
15889801179
15889806367
15889812776
15889817720
15889824251
15889828645
15889835054
15889839204
15889845796
15889850679
15889857393
15889862581
15889869600
15889874727
15889880037
15889885957
15889891755
15889898530
15889904023
15889909456
15889916352
15889922273
15889927461
15889932038
15889940095
15889946199
15889951753
15889957856
15889962922
15889967439
15889978608
15889985688
15889991364
15889997285
15890004182
15890008882
15890016511
15890023164
15890028718
15890034394
15890040437
15890046479
15890053010
15890057587
15890062959
15890068635
15890075593
15890081391
15890088959
15890093598
15890100312
15890104890
15890111603
15890116242
15890121430
15890126618
15890133515
15890138276
15890145112
15890150422
15890156342
15890162568
15890168732
15890175141
15890181000
15890186493
15890192902
15890198029
15890204132
15890209748
15890216462
15890223359
15890231110
15890238922
15890244660
15890250763
15890256073
15890261994
15890267487
15890272064
15890279267
15890286713
15890293427
15890296784
15890307037
15890311676
15890318268
15890325287
15890330841
15890337189
15890343597
15890349762
15890355499
15890361053
15890367401
15890370575
15890379913
15890386993
15890391571
15890398346
15890405365
15890408783
15890417816
15890422577
15890429962
15890435943
15890442291
15890448578
15890454559
15890459564
15890465545
15890468719
15890477630
15890481842
15890491546
15890496795
15890502594
15890508697
15890515350
15890521698
15890529083
15890535858
15890542205
15890547454
15890555572
15890561981
15890567413
15890573211
15890579437
15890586151
15890592559
15890599883
15890605621
15890611114
15890616546
15890622344
15890629241
15890633758
15890640472
15890645416
15890651031
15890657073
15890662566
15890668609
15890676177
15890681976
15890687347
15890692107
15890698943
15890704864
15890710357
15890716521
15890723540
15890730376
15890736236
15890743377
15890748809
15890753081
15890759246
15890764434
15890772063
15890777190
15890782622
15890788604
15890794036
15890800444
15890806609
15890812529
15890819365
15890827483
15890833403
15890840850
15890847319
15890853911
15890859770
15890865203
15890872771
15890879119
15890884368
15890889250
15890897856
15890903166
15890908598
15890913847
15890922453
15890928618
15890936369
15890940398
15890947905
15890954314
15890959135
15890963957
15890972197
15890978789
15890983610
15890990019
15890994841
15891000151
15891006865
15891011320
15891019438
15891027067
15891032500
15891038298
15891041960
15891049162
15891053862
15891061674
15891068876
15891074125
15891076750
15891083891
15891088408
15891093290
15891097868
15891103361
15891109648
15891115507
15891120024
15891125883
15891131254
15891137052
15891144010
15891150114
15891157499
15891162748
15891168485
15891174223
15891179838
15891187834
15891194792
15891200285
15891207548
15891212797
15891217741
15891223478
15891228910
15891235380
15891240812
15891245573
15891252226
15891257780
15891263456
15891268217
15891275175
15891278776
15891284574
15891289884
15891296964
15891300626
15891305814
15891311918
15891316923
15891322355
15891328947
15891335538
15891342252
15891347196
15891355069
15891361600
15891366605
15891373441
15891379178
15891385953
15891391446
15891396878
15891402005
15891410001
15891419522
15891424344
15891430936
15891435758
15891440702
15891447110
15891452909
15891456571
15891462857
15891469693
15891475492
15891480557
15891488614
15891495450
15891500882
15891511258
15891517117
15891523160
15891528714
15891533597
15891538846
15891543790
15891549161
15891556363
15891562344
15891567349
15891573087
15891578213
15891586392
15891590970
15891596280
15891603055
15891609402
15891613431
15891618863
15891624600
15891629849
15891634610
15891640530
15891647793
15891653286
15891658597
15891665249
15891669522
15891677273
15891682156
15891687527
15891694363
15891699856
15891705410
15891710354
15891715725
15891720974
15891725247
15891732754
15891738919
15891747463
15891754849
15891760586
15891767788
15891774197
15891780606
15891786648
15891792202
15891798733
15891804958
15891809658
15891815762
15891820828
15891828457
15891833645
15891840298
15891846401
15891852749
15891859341
15891867458
15891873257
15891876614
15891886135
15891892361
15891899746
15891904384
15891913540
15891920681
15891927761
15891930813
15891938686
15891944240
15891951626
15891956569
15891961330
15891969326
15891974941
15891980983
15891987209
15891994350
15891999599
15892005764
15892011196
15892016628
15892022853
15892027919
15892031948
15892038784
