15410434487
15410443154
15410451699
15410459694
15410467995
15410474892
15410482948
15410489967
15410497475
15410504921
15410512245
15410519020
15410525307
15410534096
15410541420
15410549416
15410556313
15410562660
15410568520
15410575294
15410582619
15410588905
15410596779
15410605263
15410611732
15410619423
15410627235
15410636146
15410643654
15410650856
15410656593
15410664283
15410671425
15410680580
15410688758
15410697914
15410706764
15410715065
15410728920
15410738624
15410744544
15410752662
15410760963
15410768836
15410775672
15410784950
15410792518
15410799476
15410805518
15410812843
15410819190
15410825904
15410829810
15410837440
15410841346
15410849097
15410852882
15410861488
15410869605
15410874671
15410882178
15410887183
15410894263
15410901160
15410907508
15410913367
15410919410
15410926673
15410933082
15410938270
15410946509
15410952002
15410958472
15410963843
15410971595
15410977393
15410983374
15410987098
15410994605
15410998389
15411005652
15411011634
15411017554
15411024024
15411030677
15411040137
15411045935
15411052588
15411058081
15411065222
15411071021
15411076453
15411082617
15411089087
15411095313
15411101477
15411108984
15411115454
15411121375
15411127539
15411131995
15411138586
15411142615
15411152014
15411158972
15411164099
15411170813
15411177283
15411183935
15411189001
15411195593
15411201636
15411207678
15411212256
15411219397
15411223974
15411230017
15411236365
15411241980
15411248388
15411256262
15411262487
15411269262
15411275610
15411284033
15411292150
15411299231
15411305761
15411313757
15411325293
15411334204
15411343237
15411351232
15411360082
15411365454
15411372045
15411378332
15411384435
15411389990
15411395971
15411403539
15411411779
15411418737
15411426000
15411431738
15411435888
15411445959
15411450170
15411459325
15411467748
15411473791
15411481359
15411488195
15411493078
15411499303
15411505834
15411512975
15411518224
15411525426
15411532201
15411539037
15411545263
15411552465
15411559179
15411567601
15411574987
15411582738
15411588903
15411594823
15411602147
15411610448
15411612950
15411623937
15411629308
15411638280
15411643712
15411652074
15411657201
15411664647
15411669835
15411682958
15411692540
15411700108
15411706578
15411713414
15411720982
15411725621
15411734166
15411741063
15411749486
15411757298
15411763463
15411769994
15411779088
15411785863
15411791539
15411799473
15411806859
15411812962
15411820347
15411827000
15411834385
15411840062
15411845372
15411854893
15411862095
15411868565
15411873936
15411882054
15411889866
15411895665
15411903538
15411911412
15411915928
15411923313
15411930516
15411938694
15411945103
15411953526
15411960179
15411967076
15411973667
15411982334
15411988316
15411994053
15411998753
15412006443
15412010899
15412020115
15412024021
15412030369
15412037510
15412043613
15412049229
15412053501
15412058872
15412064365
15412069309
15412072117
15412079441
15412084873
15412089756
15412094517
15412098362
15412103245
15412107029
15412111484
15412116245
15412120334
15412125339
15412129734
15412135349
15412139927
15412144565
15412150303
15412156101
15412160923
15412164646
15412169712
15412175266
15412179538
15412186740
15412190525
15412196140
15412199924
15412205051
15412210910
15412215549
15412222141
15412226718
15412231418
15412236728
15412241794
15412247043
15412250217
15412254856
15412262119
15412267734
15412272189
15412278293
15412285068
15412290012
15412295810
15412301303
15412310275
15412316257
15412320468
15412325656
15412329745
15412335239
15412341159
15412346286
15412349399
15412355930
15412360751
15412365451
15412369235
15412374667
15412380527
15412385165
15412391696
15412395785
15412403293
15412407321
15412412814
15412418979
15412423312
15412428134
15412433444
15412438815
15412444552
15412448092
15412453158
15412459750
15412464511
15412469882
15412475558
15412480624
15412485934
15412490268
15412495822
15412500399
15412507846
15412514193
15412521212
15412529879
15412538668
15412546237
15412551791
15412556307
15412561068
15412566195
15412571017
15412578402
15412586215
15412590914
15412595370
15412600436
15412604891
15412608248
15412614779
15412619662
15412623629
15412629855
15412634920
15412639681
15412642611
15412647616
15412652377
15412658114
15412662020
15412668063
15412673006
15412676424
15412681490
15412685885
15412691561
15412695894
15412701205
15412705782
15412712374
15412717440
15412721651
15412726534
15412731478
15412735445
15412740999
15412745699
15412751192
15412755709
15412762423
15412768953
15412773897
15412780977
15412785067
15412791109
15412795809
15412798922
15412807344
15412813082
15412819063
15412824312
15412828462
15412831575
15412838838
15412842867
15412849092
15412853182
15412859163
15412864961
15412870088
15412875948
15412881136
15412884615
15412890413
15412895845
15412901460
15412906038
15412911104
15412916780
15412923494
15412928743
15412934053
15412938692
15412943880
15412948518
15412954744
15412959505
15412964632
15412969514
15412975984
15412982088
15412988313
15412994173
15413003999
15413010896
15413019197
15413026765
15413035127
15413046418
15413055696
15413061982
15413071382
15413076509
15413086763
15413091523
15413100495
15413107759
15413116365
15413122956
15413131257
15413138886
15413146516
15413153047
15413162324
15413169831
15413177216
15413184602
15413191316
15413197785
15413206391
15413212739
15413219575
15413228425
15413236176
15413243500
15413251130
15413258332
15413265473
15413272736
15413280488
15413287934
15413295197
15413302643
15413309418
15413315888
15413323945
15413330292
15413338837
15413345490
15413353180
15413360321
15413368378
15413375336
15413381867
15413390717
15413396820
15413403656
15413411774
15413418305
15413426361
15413435700
15413443085
15413450470
15413457123
15413465729
15413469757
15413477753
15413483429
15413490875
15413496918
15413502899
15413510712
15413517120
15413522491
15413529572
15413535126
15413542755
15413548859
15413557709
15413566681
15413573456
15413579925
15413587189
15413595672
15413601959
15413607818
15413616974
15413623932
15413632843
15413641815
15413647064
15413652923
15413662689
15413668548
15413674591
15413682159
15413689972
15413696319
15413704437
15413708709
15413718902
15413724517
15413734588
15413744781
15413751861
15413760528
15413765472
15413779266
15413791961
15413797759
15413806854
15413811797
15413820770
15413823211
15413833404
15413837737
15413848174
15413852447
15413864226
15413871429
15413876800
15413883269
15413890166
15413896758
15413904632
15413911773
15413918670
15413923613
15413931121
15413938933
15413944671
15413951568
15413959502
15413963347
15413972258
15413979216
15413986480
15413993621
15414000518
15414007476
15414013945
15414020659
15414027800
15414034453
15414041411
15414048003
15414054411
15414061186
15414069304
15414076201
15414082854
15414089018
15414096953
15414103911
15414110564
15414116972
15414124297
15414134489
15414142363
15414149016
15414155546
15414161528
15414168425
15414175993
15414182097
15414190397
15414197355
15414203276
15414210478
15414216826
15414225248
15414231535
15414238554
15414246977
15414254484
15414261320
15414269560
15414276091
15414284391
15414289946
15414295439
15414301969
15414307402
15414313017
15414317411
15414322965
15414327726
15414333402
15414338407
15414345793
15414350920
15414356291
15414360502
15414366300
15414370695
15414377409
15414383390
15414385526
15414395475
15414404020
15414409391
15414416715
15414421110
15414424833
15414431669
15414437284
15414442960
15414448942
15414455228
15414461820
15414466703
15414471281
15414476102
15414482511
15414487028
15414492216
15414496488
15414500883
15414505155
15414509244
15414513028
15414519864
15414523282
15414528592
15414531034
15414538480
15414544034
15414548856
15414552640
15414557584
15414562406
15414566678
15414571012
15414574430
15414580106
15414583890
15414589261
15414594632
15414602018
15414606351
15414611722
15414617093
15414622586
15414627896
15414631558
15414636563
15414643155
15414647183
15414652799
15414656278
15414659757
15414666593
15414671842
15414675992
15414681546
15414686429
15414691617
15414697049
15414703153
15414707303
15414712674
15414717679
15414723355
15414728970
15414733792
15414740079
15414745145
15414749051
15414754788
15414758938
15414764126
15414768155
15414773160
15414776822
15414782193
15414787747
15414791470
15414801480
15414807461
15414813443
15414820157
15414826077
15414832486
15414838223
15414843350
15414847561
15414852383
15414856594
15414861416
15414865628
15414870327
15414876736
15414881497
15414886502
15414891629
15414897915
15414902493
15414908047
15414913357
15414918240
15414922573
15414927944
15414932278
15414936489
15414943203
15414949001
15414957546
15414962795
15414965542
15414971768
15414974453
15414980373
15414984890
15414990322
15414996059
15415001431
15415004787
15415010403
15415015163
15415020107
15415025417
15415031094
15415035488
15415040066
15415044826
15415049282
15415054287
15415057766
15415062771
15415068203
15415073208
15415077419
15415082912
15415087063
15415092556
15415096401
15415101406
15415106106
15415110927
15415115139
15415119594
15415123745
15415129116
15415133266
15415138637
15415144436
15415149624
15415152614
15415159084
15415163967
15415169643
15415172817
15415180141
15415183376
15415191738
15415197475
15415200893
15415206508
15415210231
15415214992
15415220607
15415225856
15415230251
15415235805
15415240810
15415246852
15415251430
15415255824
15415260036
15415264980
15415268642
15415273952
15415279384
15415284145
15415289394
15415298488
15415306728
15415312465
15415320033
15415326259
15415334010
15415340968
15415346522
15415354579
15415362819
15415370082
15415375697
15415382594
15415390590
15415396937
15415402675
15415411952
15415418666
15415427821
15415435695
15415442225
15415449855
15415457362
15415463710
15415469081
15415480189
15415485865
15415496424
15415501490
15415512416
15415520533
15415527491
15415534266
15415541224
15415545008
15415553980
15415562464
15415568263
15415575343
15415583949
15415591456
15415599024
15415604212
15415614039
15415621119
15415628443
15415635584
15415641688
15415648463
15415656885
15415663904
15415672266
15415678614
15415685267
15415691187
15415699610
15415705347
15415712305
15415719019
15415727686
15415734095
15415743372
15415758936
15415775476
15415784510
15415793177
15415803675
15415812097
15415820215
15415829798
15415838159
15415845728
15415853845
15415860315
15415866663
15415873010
15415879297
15415886377
15415894006
15415901575
15415908594
15415916406
15415921594
15415928186
15415933618
15415941064
15415946680
15415954431
15415963464
15415969995
15415977441
15415982934
15415990747
15415997949
15416006128
15416014001
15416021142
15416027063
15416035791
15416041711
15416048608
15416054589
15416062707
15416068628
15416077722
15416084558
15416090539
15416096521
15416105737
15416112573
15416120324
15416126122
15416135705
15416143884
15416151086
15416157250
15416164269
15416169335
15416178124
15416186730
15416200951
15416207360
15416215356
15416223595
15416234704
15416243615
15416248986
15416256982
15416264428
15416270898
15416278039
15416284386
15416295067
15416301232
15416310265
15416317162
15416324120
15416331017
15416339135
15416343468
15416352623
15416359826
15416366967
15416374474
15416381554
15416386620
15416394493
15416402367
15416409386
15416415734
15416422814
15416431175
15416436547
15416443993
15416451561
15416457359
15416464806
15416471764
15416479332
15416485863
15416492394
15416500511
15416507652
15416516563
15416522972
15416531761
15416538658
15416545006
15416551781
15416558372
15416566429
15416574364
15416579552
15416584984
15416590233
15416595604
15416601097
15416608360
15416613060
15416618370
15416623253
15416628990
15416633262
15416638878
15416644127
15416648887
15416655052
15416661766
15416667381
15416672691
15416679222
15416683860
15416690757
15416698081
15416702598
15416709068
15416714378
15416720603
15416726768
15416732627
15416738853
15416744529
15416749961
15416755882
15416761009
15416766197
15416771995
15416779563
15416785300
15416788963
15416799827
15416808921
15416815086
15416822410
15416828635
15416834251
15416841392
15416844993
15416851096
15416855125
15416860190
15416864280
15416869407
15416875937
15416881919
15416886863
15416892661
15416898887
15416901938
15416907920
15416912620
15416917258
15416922385
15416927634
15416933005
15416938620
15416943930
15416948447
15416954673
15416960837
15416967002
15416971946
15416979026
15416985190
15416990927
15416996970
15417002036
15417008078
15417014365
15417019248
15417026694
15417031516
15417037924
15417042014
15417048300
15417052817
15417058981
15417063376
15417071372
15417077231
15417082602
15417086691
15417093588
15417098166
15417104697
15417109213
15417116049
15417120810
15417126242
15417131918
15417136801
15417141257
15417147482
15417153219
15417159140
15417164206
15417170675
15417175619
15417182333
15417187094
15417192160
15417200644
15417206381
15417210775
15417217733
15417223166
15417228293
15417233481
15417238607
15417246115
15417251547
15417255392
15417261068
15417266806
15417271505
15417276388
15417281454
15417288046
15417293905
15417299642
15417305075
15417309530
15417314840
15417321005
15417325521
15417334005
15417341635
15417347860
15417355489
15417360311
15417367391
15417371847
15417378683
15417383321
15417389120
15417393392
15417399007
15417403097
15417409689
15417415304
15417422018
15417426473
15417431783
15417436178
15417441549
15417446249
15417453084
15417458150
15417462057
15417466939
15417472249
15417476949
15417481038
15417487447
15417493917
15417499715
15417503133
15417508931
15417514180
15417519124
15417524373
15417529622
15417535665
15417539937
15417545797
15417549764
15417556295
15417560506
15417566732
15417572896
15417579061
15417583943
15417589620
15417594319
15417600179
15417606526
15417612569
15417617635
15417624043
15417632771
15417641561
15417646932
15417656453
15417665303
15417671834
15417680928
15417689290
15417697102
15417703084
15417711385
15417717427
15417726033
15417734090
15417741475
15417749837
15417757161
15417763081
15417772053
15417778035
15417786458
15417794209
15417802083
15417810200
15417817402
15417823262
15417831685
15417840168
15417847493
15417853962
15417862507
15417870808
15417878254
15417884236
15417892659
15417901020
15417907429
15417915608
15417923420
15417933735
15417940815
15417948139
15417956684
15417963764
15417974384
15417982807
15417995258
15418003742
15418010090
15418020405
15418026325
15418034931
15418043598
15418049579
15418057819
15418064777
15418073017
15418080646
15418087421
15418095905
15418103229
15418110737
15418118549
15418127033
15418133747
15418142353
15418148822
15418156513
15418165851
15418172321
15418178852
15418186969
15418193500
15418202411
15418208881
15418217853
15418225421
15418233966
15418240436
15418248554
15418255023
15418264179
15418270770
15418280048
15418288165
15418295673
15418303058
15418310382
15418317828
15418325763
15418333331
15418340472
15418347980
15418355182
15418361590
15418370807
15418378009
15418389178
15418397540
15418403094
15418409381
15418418292
15418425738
15418433429
15418441058
15418448687
15418457843
15418465533
15418473407
15418479449
15418487628
15418493670
15418500811
15418509417
15418515338
15418525469
15418533160
15418541400
15418547686
15418554827
15418563860
15418570940
15418579852
15418590289
15418598894
15418606646
15418613726
15418621966
15418631731
15418637835
15418646319
15418657427
15418665484
15418673174
15418680742
15418689715
15418695696
15418705095
15418711687
15418720781
15418726641
15418735918
15418744585
15418751726
15418757463
15418767290
15418774431
15418784380
15418792253
15418800188
15418807939
15418815752
15418823747
15418829668
15418840105
15418845781
15418855303
15418861162
15418869341
15418875261
15418885271
15418891679
15418901567
15418907976
15418915605
15418921525
15418930681
15418936540
15418945756
15418951982
15418959611
15418965776
15418972124
15418977067
15418982560
15418989152
15418993974
15418997453
15419004045
15419007890
15419015947
15419019426
15419028154
15419032548
15419041520
15419046647
15419050859
15419057450
15419061662
15419067338
15419072892
15419078508
15419083573
15419091569
15419097001
15419104569
15419109147
15419115800
15419121781
15419127885
15419131486
15419138688
15419144181
15419148454
15419153764
15419159379
15419162675
15419170365
15419176041
15419180802
15419187821
15419192033
15419195329
15419203019
15419207169
15419213578
15419217728
15419223893
15419227982
15419234208
15419239823
15419246049
15419250687
15419257828
15419265397
15419269669
15419275956
15419280655
15419287430
15419294816
15419299698
15419305924
15419312455
15419317826
15419321488
15419330155
15419334732
15419340958
15419347794
15419356522
15419364640
15419369889
15419375992
15419381058
15419388077
15419393143
15419399491
15419402542
15419409195
15419415726
15419419632
15419424637
15419429886
15419435562
15419439469
15419445267
15419449112
15419454605
15419460526
15419465897
15419470596
15419475662
15419480972
15419487930
15419492996
15419499100
15419504349
15419509048
15419513870
15419519485
15419524795
15419531570
15419537247
15419542496
15419548172
15419553055
15419558670
15419565811
15419572159
15419578445
15419583572
15419589554
15419594497
15419599319
15419603897
15419611709
15419616897
15419622390
15419627029
15419634048
15419639297
15419647354
15419654861
15419662185
15419667251
15419675369
15419680923
15419687088
15419692703
15419699478
15419704360
15419710952
15419715774
15419721755
15419727737
15419734390
15419738906
15419744155
15419749831
15419754958
15419761184
15419767532
15419771682
15419779800
15419783035
15419789260
15419795242
15419800307
15419805801
15419813064
15419819594
15419824782
15419832595
15419837783
15419844619
15419850234
15419854507
15419862685
15419867324
15419872939
15419878127
15419882888
15419888320
15419893691
15419898879
15419903640
15419908156
15419915908
15419923171
15419930373
15419937392
15419949294
15419955214
15419960036
15419966933
15419972426
15419977919
15419982680
15419987990
15419995131
15420000746
15420005873
15420011000
15420015273
15420021254
15420025710
15420031752
15420035719
15420040541
15420045851
15420050673
15420054579
15420060072
15420065016
15420071364
15420079665
15420087294
15420093459
15420100233
15420107863
15420115187
15420121901
15420129652
15420138563
15420145888
15420150465
15420160231
15420168715
15420177076
15420184279
15420190687
15420199904
15420206373
15420218153
15420223768
15420232557
15420238905
15420250013
15420260023
15420268263
15420275465
15420282606
15420291456
15420299024
15420306593
15420312879
15420322279
15420327833
15420336500
15420342848
15420350355
15420357557
15420364637
15420370924
15420379408
15420385938
15420393812
15420400343
15420410779
15420415479
15420428052
15420432874
15420443738
15420450574
15420456129
15420463392
15420471326
15420477002
15420485792
15420492872
15420500684
15420512647
15420519422
15420527662
15420536512
15420545484
15420554761
15420561475
15420568250
15420576306
15420582654
15420592237
15420599805
15420611279
15420620007
15420629041
15420635327
15420644299
15420649243
15420657727
15420664502
15420672681
15420676953
15420687939
15420693311
15420700940
15420709424
15420716260
15420724011
15420733777
15420740796
15420746472
15420753186
15420761670
15420768078
15420775158
15420784314
15420792126
15420799023
15420807385
15420813794
15420820935
15420826611
15420831921
15420842358
15420850842
15420857067
15420865246
15420871105
15420879589
15420885449
15420889782
15420901074
15420905895
15420915722
15420920483
15420930493
15420937634
15420943981
15420950451
15420959606
15420967297
15420974865
15420981701
15420991955
15420998852
15421007336
15421014477
15421026562
15421035107
15421042003
15421048046
15421056713
15421064220
15421070385
15421076977
15421086254
15421092907
15421099437
15421107616
15421114269
15421120372
15421129100
15421137706
15421143749
15421152477
15421158885
15421164684
15421170116
15421181529
15421190502
15421197643
15421206981
15421213939
15421220409
15421230174
15421237682
15421246410
15421253795
15421262279
15421271007
15421277904
15421286754
15421295116
15421303294
15421309581
15421317210
15421325450
15421331737
15421340098
15421346019
15421355052
15421362559
15421371592
15421385203
15421394420
15421405284
15421412974
15421418956
15421424510
15421429454
15421435191
15421439402
15421445811
15421452403
15421457530
15421463633
15421468821
15421476329
15421481211
15421486338
15421491892
15421497569
15421502940
15421507151
15421511851
15421516245
15421520945
15421527903
15421534556
15421540049
15421544444
15421550181
15421555918
15421560069
15421567698
15421573191
15421578623
15421582957
15421588145
15421593394
15421598826
15421604929
15421610667
15421616221
15421622324
15421627329
15421632212
15421637339
15421641672
15421647349
15421652781
15421660654
15421667185
15421671885
15421677500
15421682444
15421687204
15421691660
15421698435
15421703257
15421708445
15421712961
15421717966
15421723093
15421729624
15421734629
15421740183
15421745859
15421751230
15421755625
15421760324
15421766672
15421771006
15421776438
15421782785
15421787485
15421792063
15421798593
15421803110
15421809030
15421814584
15421820871
15421826059
15421831918
15421836618
15421842172
15421846872
15421852487
15421859018
15421864389
15421867441
15421874216
15421879098
15421883066
15421888010
15421894907
15421900339
15421909250
15421915292
15421920419
15421926462
15421931161
15421936349
15421940927
15421947091
15421951303
15421956430
15421960458
15421965097
15421969491
15421976754
15421982248
15421986886
15421990976
15421996042
15422000436
15422007455
15422012155
15422018686
15422024240
15422028573
15422032602
15422038705
15422044076
15422049447
15422054818
15422060617
15422065988
15422072640
15422075875
15422082406
15422087838
15422093209
15422098031
15422104074
15422111276
15422116586
15422121530
15422127694
15422133187
15422138436
15422142831
15422148934
15422154122
15422161813
15422166146
15422170358
15422178780
15422183419
15422190133
15422194772
15422201974
15422208626
15422216317
15422221932
15422226998
15422231148
15422238412
15422244027
15422248421
15422254464
15422261666
15422264901
15422271798
15422277108
15422282235
15422286873
15422292733
15422300789
15422306771
15422312203
15422317696
15422322701
15422327767
15422334420
15422339485
15422345955
15422352425
15422357918
15422364998
15422370125
15422375862
15422380318
15422386116
15422391365
15422400337
15422405098
15422409615
15422417610
15422421578
15422427986
15422431709
15422438973
15422445870
15422451485
15422456123
15422462776
15422468575
15422474068
15422481575
15422486519
15422495857
15422503731
15422513862
15422520271
15422526436
15422534126
15422539985
15422546577
15422556282
15422564216
15422570381
15422578132
15422584541
15422592842
15422600227
15422606880
15422616462
15422622566
15422630622
15422636299
15422644172
15422649910
15422658576
15422666450
15422673408
15422680061
15422687385
15422695197
15422702400
15422707771
15422715217
15422722480
15422730109
15422737312
15422744941
15422752082
15422757453
15422765754
15422773627
15422781440
15422788520
15422796088
15422802924
15422809394
15422818000
15422825080
15422835029
15422843513
15422852668
15422860602
15422866584
15422874579
15422883490
15422890693
15422897651
15422904181
15422910834
15422917914
15422926276
15422934333
15422943000
15422950568
15422957892
15422966376
15422972541
15422979376
15422988288
15422995978
15423002814
15423011359
15423018561
15423027899
15423034430
15423041998
15423051032
15423060248
15423067267
15423074225
15423082709
15423087714
15423096991
15423104986
15423113287
15423120367
15423128058
15423135260
15423141669
15423148993
15423158636
15423173163
15423179266
15423187445
15423194952
15423203680
15423210638
15423219244
15423227667
15423233953
15423240728
15423249273
15423255194
15423261236
15423269781
15423280218
15423287725
15423295110
15423302252
15423309515
15423314886
15423322881
15423328741
15423338567
15423346563
15423353033
15423358648
15423366338
15423372808
15423380071
15423388555
15423395086
15423402959
15423410894
15423417913
15423423650
15423432928
15423440923
15423449590
15423458562
15423463872
15423471563
15423479741
15423486943
15423496709
15423504827
15423509404
15423518804
15423526799
15423532048
15423540410
15423548955
15423555852
15423566289
15423574407
15423582341
15423589299
15423596929
15423603337
15423613408
15423622136
15423629704
15423635564
15423643742
15423650822
15423658208
15423667058
15423674199
15423681340
15423690129
15423698430
15423706059
15423711247
15423719792
15423727788
15423736333
15423744633
15423750126
15423755070
15423761296
15423766789
15423771245
15423778447
15423784977
15423789250
15423795170
15423799809
15423806279
15423811833
15423819096
15423824955
15423831242
15423838627
15423845219
15423849980
15423859440
15423863835
15423872807
15423877445
15423883915
15423889286
15423894413
15423900211
15423905399
15423911991
15423918156
15423923893
15423929203
15423935246
15423940434
15423947025
15423952396
15423959415
15423965702
15423971439
15423976810
15423983341
15423988651
15423993961
15424000248
15424006412
15424011600
15424016178
15424022892
15424027653
15424033024
15424039066
15424044681
15424050663
15424055851
15424060917
15424067325
15424072757
15424078190
15424083316
15424090152
15424093143
15424100223
15424103458
15424110477
15424114078
15424123233
15424129093
15424136112
15424142520
15424149784
15424156620
15424161807
15424168399
15424174014
15424178348
15424186466
15424190006
15424195865
15424201053
15424207034
15424212528
15424217044
15424224185
15424231570
15424236697
15424240970
15424245364
15424250674
15424255496
15424262698
15424268741
15424274112
15424280460
15424285525
15424291446
15424296451
15424302615
15424307681
15424312564
15424319522
15424324405
15424331119
15424336612
15424341006
15424349002
15424352847
15424361514
15424365298
15424373172
15424376590
15424383853
15424389407
15424394595
15424399966
15424405947
15424413394
15424419558
15424426699
15424433291
15424439089
15424444949
15424452151
15424456973
15424463137
15424469363
15424473757
15424478701
15424482852
15424489565
15424493716
15424500552
15424505862
15424510806
15424516482
15424521304
15424525637
15424530276
15424534304
15424541018
15424547182
15424554324
15424559939
15424565615
15424570071
15424576296
15424580935
15424587588
15424592226
15424599795
15424604861
15424610903
15424617129
15424622805
15424627199
15424633181
15424639467
15424646364
15424653444
15424656984
15424664126
15424667666
15424674196
15424679506
15424685671
15424690981
15424697634
15424702456
15424708315
15424712893
15424719606
15424724306
15424730898
15424738039
15424744570
15424750734
15424757448
15424764223
15424769411
15424774111
15424779543
15424784975
15424790529
15424795229
15424799196
15424807008
15424812746
15424817018
15424822511
15424827638
15424833864
15424839845
15424845277
15424851015
15424856996
15424862245
15424867433
15424873415
15424879701
15424885316
15424891725
15424897096
15424904054
15424910829
15424916505
15424924745
15424933717
15424941835
15424948427
15424955324
15424963258
15424970826
15424977418
15424986390
15424994386
15425003846
15425010865
15425016908
15425023439
15425034059
15425041993
15425050599
15425060792
15425071290
15425079774
15425086183
15425093629
15425102113
15425109681
15425116761
15425125672
15425132264
15425140015
15425147034
15425154115
15425160645
15425168214
15425176697
15425184083
15425191712
15425199280
15425204957
15425212342
15425218629
15425228028
15425235413
15425240967
15425249512
15425255555
15425264161
15425270569
15425278077
15425286805
15425294617
15425302063
15425308289
15425315308
15425321289
15425329102
15425337891
15425345825
15425352234
15425359070
15425366577
15425372498
15425379456
15425390259
15425401795
15425410523
15425418335
15425425354
15425432617
15425439758
15425446777
15425454773
15425461548
15425472839
15425480286
15425488525
15425495361
15425505676
15425512085
15425519775
15425528015
15425536011
15425541809
15425549743
15425558288
15425567138
15425573608
15425578003
15425588073
15425595276
15425602905
15425610534
15425617797
15425626525
15425633911
15425640319
15425648315
15425654724
15425661193
15425670226
15425677734
15425684326
15425693786
15425700073
15425705322
15425715698
15425723144
15425728942
15425736144
15425743407
15425755492
15425764342
15425772704
15425778258
15425788207
15425796447
15425803405
15425813231
15425820373
15425825866
15425834105
15425840148
15425848998
15425855773
15425862548
15425869933
15425878356
15425883422
15425891967
15425899108
15425906432
15425912963
15425920043
15425928160
15425936278
15425942565
15425948668
15425956847
15425962645
15425971007
15425978392
15425985716
15425992369
15425999877
15426006651
15426013548
15426020873
15426029234
15426037779
15426046385
15426053831
15426059935
15426069090
15426076353
15426082823
15426091185
15426099119
15426108641
15426114500
15426123106
15426129393
15426138426
15426146299
15426156614
15426163939
15426172606
15426178343
15426191160
15426198729
15426210142
15426219664
15426226194
15426235716
15426244017
15426251585
15426260069
15426270994
15426277403
15426284483
15426290037
15426297605
15426304563
15426311460
15426318967
15426328855
15426335752
15426343259
15426351865
15426359739
15426368223
15426375120
15426385740
15426393796
15426407102
15426422544
15426436582
15426451597
15426465024
15426481504
15426497678
15426510068
15426525510
15426544187
15426559934
15426575131
15426585324
15426594724
15426604489
15426616574
15426628781
15426640622
15426653622
15426666501
15426677731
15426689816
15426698056
15426705441
15426714230
15426722348
15426729245
15426736630
15426745236
15426753781
15426761105
15426770382
15426777401
15426789120
15426796200
15426805539
15426813229
15426820492
15426829586
15426838009
15426846859
15426854550
15426863156
15426867672
15426877987
15426885922
15426893673
15426902645
15426911923
15426919003
15426926754
15426934567
15426943661
15426952572
15426961056
15426967953
15426978023
15426988460
15426996944
15427003414
15427012142
15427020504
15427030147
15427038265
15427045528
15427053219
15427061031
15427070186
15427077938
15427085018
15427094539
15427103206
15427111873
15427118526
15427127315
15427135555
15427143367
15427151790
15427158687
15427165523
15427172298
15427181575
15427188533
15427195552
15427202876
15427213496
15427223140
15427231624
15427239803
15427250972
15427258906
15427265987
15427274287
15427281917
15427289546
15427298213
15427309932
15427317927
15427325984
15427334956
15427343867
15427353999
15427363765
15427374202
15427381892
15427389949
15427398616
15427407344
15427414973
15427422175
15427431391
15427441218
15427448237
15427455195
15427465083
15427473017
15427481196
15427486201
15427497614
15427505854
15427513728
15427520625
15427528498
15427533930
15427545039
15427552485
15427560786
15427569514
15427577875
15427586054
15427593317
15427602534
15427609858
15427618891
15427625239
15427634760
15427643854
15427653925
15427660151
15427668940
15427677729
15427685419
15427693171
15427701227
15427708185
15427715815
15427720392
15427725031
15427731378
15427736566
15427740900
15427746149
15427751154
15427755060
15427760919
15427768427
15427774408
15427779413
15427785394
15427792413
15427798029
15427803095
15427810724
15427818414
15427823480
15427828790
15427837396
15427843317
15427849176
15427852716
15427860284
15427867303
15427873224
15427878961
15427885126
15427889337
15427896234
15427902826
15427907831
15427913751
15427919671
15427925409
15427931207
15427937982
15427944146
15427950982
15427958062
15427964349
15427968988
15427975457
15427981927
15427988885
15427994195
15428001825
15428008966
15428015863
15428021112
15428029779
15428035882
15428042962
15428049310
15428054254
15428060052
15428068353
15428074029
15428080193
15428086358
15428092584
15428098443
15428106622
15428112359
15428118279
15428124261
15428131280
15428136468
15428142815
15428147698
15428155022
15428161004
15428167474
15428174004
15428179436
15428186577
15428191949
15428199456
15428206353
15428213677
15428218743
15428226250
15428232537
15428238640
15428244683
15428252251
15428259331
15428268120
15428274224
15428280754
15428288445
15428294731
15428300286
15428308281
15428314141
15428322563
15428328545
15428333611
15428343315
15428351067
15428358696
15428363762
15428372307
15428379265
15428386467
15428391899
15428400383
15428405876
15428414726
15428421684
15428427055
15428437370
15428443291
15428450066
15428457390
15428464104
15428471428
15428478874
15428485527
15428493156
15428500175
15428506645
15428514213
15428520256
15428527885
15428534172
15428541374
15428551078
15428558342
15428564811
15428573478
15428579338
15428586113
15428594352
15428600944
15428608024
15428618217
15428624504
15428632377
15428638908
15428649284
15428655815
15428664848
15428671073
15428682121
15428689079
15428699271
15428705558
15428713493
15428721610
15428728263
15428737235
15428745841
15428752006
15428760429
15428765922
15428774589
15428780021
15428787772
15428796378
15428804130
15428809928
15428817740
15428824820
15428832145
15428838126
15428845084
15428852652
15428861564
15428867301
15428871817
15428882010
15428889273
15428894767
15428900748
15428908866
15428915824
15428925589
15428929923
15428939749
15428944388
15428954154
15428961539
15428968741
15428977957
15428985404
15428991568
15428996634
15429001029
15429007071
15429011771
15429017813
15429023917
15429030692
15429035574
15429040091
15429045828
15429051749
15429056265
15429062430
15429068899
15429073355
15429081167
15429084402
15429091543
15429094656
15429100516
15429103750
15429110464
15429116751
15429125357
15429128714
15429135611
15429139151
15429146109
15429148123
15429156179
15429160452
15429166067
15429169180
15429175283
15429180288
15429185049
15429189871
15429195974
15429200796
15429207022
15429211965
15429217581
15429222280
15429229605
15429234121
15429238027
15429244253
15429249685
15429254629
15429259817
15429264089
15429269949
15429274770
15429281057
15429286001
15429290884
15429297414
15429301565
15429307241
15429315420
15429321462
15429327627
15429334158
15429339223
15429345937
15429353017
15429359548
15429365591
15429371328
15429376089
15429382375
15429387258
15429392507
15429397878
15429404531
15429409414
15429414541
15429418935
15429424245
15429428945
15429434499
15429439565
15429445485
15429451589
15429457265
15429462270
15429467763
15429473195
15429479970
15429484609
15429491017
15429496633
15429500234
15429507497
15429512258
15429519704
15429523671
15429530568
15429535756
15429542043
15429547170
15429552846
15429558827
15429565297
15429570973
15429576894
15429581654
15429588307
15429594045
15429598439
15429604726
15429608510
15429614919
15429620412
15429629018
15429635060
15429644521
15429649831
15429655568
15429661671
15429666798
15429672963
15429676625
15429683644
15429689686
15429696156
15429700673
15429707142
15429711720
15429717396
15429721730
15429727467
15429733204
15429738148
15429744557
15429749501
15429755970
15429760304
15429766346
15429770680
15429775685
15429782277
15429787831
15429793568
15429799183
15429805409
15429810963
15429815113
15429822499
15429828541
15429833790
15429841114
15429845936
15429853077
15429857716
15429863819
15429871021
15429877369
15429884388
15429888661
15429895680
15429900013
15429907398
15429911976
15429918262
15429924671
15429929554
15429936024
15429941395
15429947193
15429952869
15429959461
15429964161
15429971729
15429976917
15429981983
15429985401
15429991382
15429997364
15430002552
15430007374
15430013660
15430019703
15430024341
15430028675
15430035328
15430040271
15430046436
15430050831
15430059497
15430063892
15430070606
15430074634
15430081958
15430086963
15430093189
15430100818
15430110401
15430118640
15430127490
15430136280
15430143299
15430153980
15430159351
15430170093
15430175952
15430185108
15430190540
15430201648
15430210803
15430218433
15430226794
15430236133
15430244617
15430251819
15430260425
15430269275
15430278369
15430283801
15430292102
15430297412
15430306079
15430311511
15430320605
15430328418
15430336230
15430344409
15430350268
15430359057
15430364795
15430373095
15430379138
15430388964
15430395495
15430402575
15430409228
15430418322
15430425097
15430433093
15430440539
15430447619
15430454699
15430462634
15430470385
15430477953
15430486437
15430492663
15430501757
15430509814
15430518175
15430527453
15430533312
15430542895
15430551684
15430559374
15430569994
15430577624
15430585436
15430594225
15430601977
15430609606
15430615160
15430623217
15430631090
15430639025
15430644640
15430651537
15430658495
15430668016
15430675768
15430682909
15430690721
15430699572
15430704271
15430712938
15430719530
15430727526
15430733385
15430743151
15430749742
15430757372
15430763231
15430771715
15430777757
15430785875
15430793932
15430800340
15430808702
15430814378
15430823412
15430829088
15430837572
15430845750
15430852037
15430859605
15430867540
15430875719
15430882921
15430890184
15430898424
15430904893
15430913133
15430921678
15430930406
15430936937
15430946336
15430952745
15430961778
15430968675
15430974717
15430985154
15430992234
15431001695
15431009934
15431017564
15431025071
15431033067
15431040330
15431048509
15431055161
15431064134
15431073594
15431080003
15431088487
15431096970
15431103440
15431112473
15431118943
15431127000
15431134141
15431142930
15431152878
15431158005
15431168198
15431175828
15431183762
15431190293
15431199204
15431206162
15431215622
15431222153
15431228074
15431238144
15431246811
15431253342
15431260483
15431268418
15431278916
15431285141
15431292221
15431303025
15431310471
15431318344
15431325546
15431333847
15431340683
15431349472
15431359055
15431367111
15431376083
15431383225
15431391586
15431397568
15431407639
15431416428
15431423874
15431431747
15431437668
15431445724
15431453842
15431459335
15431468124
15431473373
15431482406
15431488144
15431495102
15431498886
15431505844
15431510788
15431516403
15431522323
15431528488
15431534042
15431540329
15431545150
15431551559
15431556137
15431561020
15431566940
15431571640
15431577194
15431581771
15431587997
15431594039
15431598495
15431601974
15431609909
15431616622
15431621871
15431627853
15431632125
15431637802
15431643051
15431646346
15431655258
15431659774
15431666732
15431672408
15431679244
15431682784
15431689254
15431693038
15431699813
15431705672
15431714767
15431718307
15431725326
15431730636
15431735702
15431739547
15431746749
15431753341
15431759322
15431765243
15431770614
15431775863
15431780257
15431785628
15431792403
15431798629
15431804305
15431810103
15431815474
15431820296
15431825667
15431830916
15431837508
15431843856
15431848677
15431853011
15431858687
15431863143
15431870162
15431877181
15431883345
15431889937
15431898787
15431904036
15431910079
15431917464
15431923384
15431927962
15431931990
15431939803
15431946822
15431951827
15431956831
15431963240
15431969405
15431974410
15431980025
15431988570
15431995284
15432003157
15432007491
15432014082
15432019820
15432023665
15432028548
15432035200
15432040877
15432047774
15432053633
15432059004
15432063704
15432068892
15432073775
15432081038
15432086409
15432094038
15432098311
15432103315
15432108992
15432113264
15432118635
15432123823
15432129072
15432136152
15432141096
15432147932
15432154524
15432158674
15432165083
15432170942
15432175520
15432181501
15432187483
15432193464
15432197920
15432201277
15432209761
15432215132
15432220808
15432227094
15432241133
15432247236
15432251203
15432258161
15432263960
15432271162
15432274824
15432281538
15432288557
15432296430
15432303266
15432308942
15432314313
15432320173
15432325056
15432331281
15432337690
15432342268
15432348493
15432353681
15432358320
15432365156
15432370038
15432376142
15432381574
15432386579
15432392316
15432398237
15432403241
15432408185
15432416547
15432422345
15432426679
15432430158
15432437909
15432443341
15432447797
15432454084
15432459943
15432465009
15432471906
15432476850
15432482526
15432488263
15432494855
15432504376
15432509625
15432514752
15432520429
15432526898
15432532025
15432536420
15432542584
15432547467
15432554303
15432560162
15432567120
15432574750
15432579388
15432586346
15432590924
15432598126
15432603009
15432610028
15432613751
15432620526
15432625531
15432629925
15432632916
15432641522
15432648358
15432655255
15432662030
15432670025
15432678876
15432684857
15432693829
15432702618
15432711285
15432718365
15432725079
15432731610
15432740155
15432746624
15432754193
15432760785
15432769635
15432775433
15432783306
15432791180
15432799176
15432805767
15432814373
15432821026
15432830670
15432837017
15432845074
15432852032
15432859600
15432868939
15432876080
15432883282
15432893414
15432899944
15432909039
15432914837
15432923443
15432931194
15432939800
15432945843
15432953716
15432962932
15432973430
15432979595
15432987957
15432996013
15433004375
15433012798
15433020733
15433026897
15433036785
15433044170
15433052105
15433059307
15433067241
15433073833
15433081462
15433090190
15433096294
15433106670
15433112956
15433122783
15433128032
15433137065
15433144267
15433152568
15433160198
15433168315
15433175151
15433185649
15433192241
15433202495
15433211650
15433218547
15433225322
15433234660
15433240886
15433248759
15433256755
15433263957
15433269816
15433274394
15433285441
15433291484
15433302165
15433306987
15433315654
15433320170
15433332011
15433343974
15433355693
15433363322
15433375346
15433382792
15433390422
15433396586
15433405497
15433413188
15433419291
15433426188
15433434916
15433441081
15433450419
15433457987
15433464762
15433473185
15433482157
15433486918
15433495890
15433503153
15433510966
15433515726
15433525126
15433532999
15433539286
15433546122
15433555033
15433559855
15433568949
15433575968
15433583903
15433592569
15433603678
15433610209
15433617960
15433624796
15433632731
15433640665
15433648111
15433657694
15433664652
15433673807
15433680277
15433688455
15433696573
15433704813
15433712931
15433721170
15433728067
15433735147
15433742594
15433751810
15433761026
15433767801
15433775858
15433782816
15433792947
15433801981
15433808694
15433817117
15433822244
15433833047
15433838174
15433848489
15433856607
15433863748
15433871744
15433880899
15433887307
15433894327
15433903604
15433911416
15433918008
15433925882
15433934732
15433942239
15433950662
15433953592
15433965921
15433974160
15433980630
15433987832
15433996804
15434004739
15434012612
15434021035
15434030801
15434041543
15434048135
15434055703
15434063393
15434069985
15434074929
15434080727
15434086098
15434090188
15434093972
15434101540
15434107217
15434113076
15434119240
15434124551
15434131325
15434137124
15434141457
15434148049
15434155861
15434161233
15434166543
15434170388
15434175271
15434180153
15434185586
15434192177
15434199196
15434203591
15434208840
15434212868
15434219399
15434224099
15434230263
15434234963
15434240700
15434245461
15434251015
15434255226
15434260598
15434267006
15434272682
15434277565
15434283608
15434288857
15434294167
15434299904
15434304238
15434309975
15434314430
15434321083
15434326759
15434330971
15434335243
15434342262
15434346779
15434352944
15434358498
15434364357
15434371315
15434377052
15434380775
15434387733
15434393044
15434399269
15434405434
15434409889
15434416847
15434424232
15434428444
15434436195
15434439552
15434447426
15434452308
15434458656
15434464882
15434470131
15434474586
15434481361
15434486061
15434491676
15434497535
15434501808
15434508461
15434515785
15434520240
15434526039
15434532508
15434535926
15434542518
15434547401
15434553321
15434560463
15434565406
15434570472
15434576149
15434581031
15434585426
15434592323
15434598487
15434603858
15434610694
15434615150
15434621375
15434627052
15434633155
15434638038
15434643470
15434649024
15434655616
15434660865
15434665992
15434672340
15434676734
15434680885
15434688331
15434690406
15434701636
15434705787
15434715491
15434720374
15434727088
15434733863
15434738502
15434743384
15434750403
15434756263
15434761146
15434765845
15434771583
15434776526
15434782203
15434787330
15434793982
15434799354
15434806861
15434811316
15434816810
15434823279
15434827308
15434833960
15434838172
15434844641
15434851416
15434856726
15434861609
15434868140
15434871619
15434878943
15434884070
15434889624
15434894568
15434900244
15434906531
15434912451
15434918067
15434923010
15434929480
15434933936
15434940650
15434944312
15434950842
15434956091
15434960608
15434965979
15434972266
15434976477
15434983069
15434988074
15434995398
15435000281
15435005896
15435010351
15435017493
15435022742
15435026404
15435034765
15435042517
15435046972
15435052588
15435058508
15435064429
15435069250
15435074560
15435079626
15435084814
15435090429
15435097143
15435101416
15435107153
15435112524
15435118933
15435124548
15435129370
15435136999
15435141455
15435147497
15435153357
15435158056
15435164831
15435170813
15435175329
15435180700
15435187536
15435192419
15435197790
15435202062
15435209081
15435214086
15435224706
15435230139
15435238256
15435242651
15435246862
15435252844
15435259802
15435264257
15435269872
15435276098
15435282446
15435288183
15435295019
15435300878
15435307653
15435313451
15435317419
15435325292
15435331701
15435338598
15435343847
15435349584
15435353429
15435359289
15435364782
15435370336
15435374425
15435381872
15435387670
15435391698
15435396886
15435402318
15435408666
15435414525
15435418004
15435425267
15435430394
15435435826
15435441442
15435446569
15435451024
15435456395
15435464940
15435470433
15435474828
15435480138
15435484777
15435491185
15435495946
15435501866
15435507176
15435513585
15435518712
15435525487
15435530797
15435536412
15435540807
15435546910
15435552098
15435559422
15435564427
15435568639
15435575597
15435581761
15435586644
15435592076
15435598119
15435604222
15435611973
15435619420
15435625340
15435632176
15435636510
15435642186
15435648289
15435655247
15435660130
15435664097
15435670811
15435675328
15435682225
15435687413
15435693516
15435700474
15435705052
15435711277
15435717808
15435721592
15435728001
15435733738
15435740513
15435746128
15435751255
15435756077
15435761814
15435768284
15435770664
15435779637
15435783482
15435789768
15435797642
15435803562
15435808933
15435814671
15435820286
15435827183
15435832920
15435837925
15435842686
15435848484
15435853428
15435860691
15435865818
15435871311
15435878513
15435885838
15435893101
15435900120
15435905003
15435911961
15435917026
15435923557
15435927891
15435932834
15435939609
15435944736
15435951572
15435955662
15435962559
15435967258
15435975376
15435980198
15435986362
15435991123
15435998447
15436004490
15436009433
15436015110
15436021824
15436026401
15436033176
15436037876
15436042392
15436049594
15436054355
15436059238
15436066867
15436074619
15436079685
15436084812
15436092197
15436097690
15436105380
15436110080
15436116001
15436121921
15436129123
15436134128
15436139987
15436144809
15436151706
15436157077
15436162753
15436167392
15436173373
15436180576
15436185397
15436191501
15436196628
15436204379
15436209750
15436217319
15436222568
15436226413
15436234164
15436238193
15436246860
15436252841
15436258273
15436263949
15436271457
15436277926
15436283297
15436288180
15436295382
15436300753
15436308871
15436314303
15436320102
15436327060
15436334262
15436340182
15436345675
15436350009
15436357150
15436361972
15436365756
15436373873
15436377658
15436384738
15436390109
15436395907
15436401034
15436408053
15436411593
15436418368
15436424960
15436431307
15436436373
15436442965
15436447482
15436454073
15436458712
15436464632
15436469942
15436478121
15436486544
15436491610
15436497774
15436503084
15436508395
15436516451
15436523165
15436530123
15436534518
15436541476
15436546908
15436551729
15436556490
15436561861
15436569735
15436575167
15436579989
15436586092
15436592074
15436597689
15436602877
15436608431
15436614290
15436619844
15436624849
15436630709
15436636141
15436641207
15436645601
15436651155
15436657137
15436664888
15436669588
15436674532
15436679964
15436685579
15436690401
15436695528
15436702425
15436707124
15436711458
15436717195
15436721712
15436727449
15436732271
15436738008
15436745821
15436751253
15436756563
15436762727
15436766939
15436774507
15436779207
15436784761
15436790132
15436797456
15436804658
15436810640
15436815156
15436820772
15436825532
15436831758
15436838533
15436843599
15436848604
15436853792
15436858919
15436864778
15436870637
15436875398
15436883149
15436887910
15436893037
15436899873
15436904817
15436910493
15436914949
15436921846
15436927217
15436933381
15436938325
15436944734
15436950532
15436955415
15436961763
15436966584
15436972810
15436980195
15436985200
15436988435
15436996552
15437001069
15437007356
15437012849
15437017487
15437023469
15437030305
15437035493
15437041230
15437046174
15437052277
15437057587
15437065461
15437073701
15437081391
15437090180
15437094331
15437099946
15437107209
15437113068
15437116791
15437123139
15437129426
15437133088
15437140107
15437143586
15437151093
15437156464
15437160859
15437166474
15437172944
15437175995
15437183136
15437188141
15437192780
15437197297
15437203827
15437209870
15437214631
15437219330
15437225068
15437231415
15437236664
15437240815
15437247834
15437252899
15437259308
15437263947
15437269440
15437275666
15437281464
15437285980
15437291901
15437298310
15437303620
15437309906
15437315216
15437321442
15437327423
15437331879
15437337799
15437342316
15437348358
15437354584
15437360077
15437365814
15437371857
15437378265
15437382111
15437389252
15437395538
15437401703
15437408417
15437413788
15437417999
15437425018
15437429352
15437435882
15437441009
15437447479
15437452362
15437456329
15437464203
15437470306
15437475982
15437480194
15437486480
15437490753
15437498993
15437502655
15437511016
15437514312
15437520904
15437525726
15437531951
15437539398
15437545379
15437549591
15437564117
15437568084
15437575836
15437581329
15437587188
15437591216
15437598480
15437603362
15437609588
15437614898
15437621002
15437625945
15437631927
15437638030
15437645110
15437650665
15437655975
15437663421
15437668609
15437674041
15437682037
15437687225
15437694427
15437700225
15437705474
15437711211
15437715301
15437720733
15437726226
15437731597
15437739470
15437745452
15437750335
15437754485
15437760833
15437764922
15437770598
15437774993
15437781829
15437787993
15437792510
15437796538
15437802703
15437806975
15437811187
15437820098
15437825164
15437831389
15437836821
15437841216
15437848174
15437853484
15437858916
15437864165
15437870391
15437877043
15437883208
15437888823
15437893889
15437899382
15437904509
15437909758
15437917326
15437923613
15437928923
15437934477
15437939177
15437945830
15437950407
15437957060
15437962065
15437969878
15437975798
15437982390
15437988554
15437994597
15437999235
15438002287
15438010283
15438015471
15438022612
15438024504
15438033171
15438038969
15438044401
15438048063
15438054716
15438062285
15438066984
15438073881
15438078764
15438085112
15438091032
15438095915
15438102507
15438107573
15438115324
15438118376
15438127287
15438132658
15438137907
15438143949
15438149382
15438156095
15438163298
15438166593
15438173796
15438179350
15438185026
15438190641
15438195951
15438201383
15438208219
15438212980
15438218229
15438223112
15438230070
15438234464
15438241056
15438246732
15438252042
15438260709
15438266203
15438272611
15438278593
15438283353
15438286466
15438295072
15438300870
15438307340
15438312711
15438318510
15438322233
15438328092
15438333341
15438339506
15438344388
15438351407
15438357084
15438361478
15438364591
15438372953
15438375943
15438384000
15438390226
15438395841
15438399747
15438405057
15438410245
15438416410
15438420255
15438425870
15438431974
15438438260
15438441434
15438448758
15438454312
15438460538
15438464505
15438471952
15438479459
15438485868
15438491971
15438496854
15438501615
15438507596
15438512540
15438518887
15438524259
15438531400
15438536160
15438541470
15438547635
15438553555
15438559415
15438566678
15438572293
15438580167
15438585355
15438591580
15438596402
15438602200
15438607999
15438612942
15438618252
15438624661
15438630948
15438634976
15438640408
15438645779
15438652188
15438658352
15438662808
15438671597
15438675930
15438680691
15438686490
15438692410
15438697903
15438703030
15438709072
15438715237
15438722866
15438728299
15438734036
15438738430
15438743985
15438750332
15438756069
15438760830
15438767300
15438773403
15438779080
15438784085
15438787319
15438795559
15438800991
15438806606
15438813381
15438819241
15438824978
15438831081
15438837002
15438844936
15438850613
15438857815
15438864346
15438872707
15438878933
15438884548
15438890469
15438895840
15438901882
15438909328
15438914272
15438920193
15438924648
15438932339
15438936123
15438944484
15438950405
15438956691
15438962795
15438969082
15438971035
15438979885
15438984401
15438992275
15438994228
15439002773
15439006984
15439013637
15439019924
15439026210
15439028408
15439037563
15439043605
15439051540
15439057765
15439062831
15439066310
15439074855
15439079433
15439086940
15439091945
15439098903
15439104701
15439111049
15439116908
15439122402
15439126003
15439134609
15439138271
15439146693
15439151088
15439158107
15439165614
15439171901
15439178676
15439184718
15439190150
15439198939
15439202907
15439210597
15439217494
15439222377
15439225917
15439233912
15439242579
15439248256
15439252467
15439262294
15439266627
15439273402
15439277614
15439286097
15439290553
15439300013
15439306300
15439311976
15439315699
15439325160
15439329005
15439337794
15439351893
15439358302
15439363429
15439371729
15439378382
15439383204
15439386805
15439396998
15439400843
15439409205
15439417933
15439424403
15439430506
15439435755
15439441065
15439446803
15439450282
15439460169
15439468592
15439475062
15439482020
15439487696
15439492640
15439497523
15439503321
15439509119
15439513087
15439516749
15439524012
15439527796
15439534083
15439538416
15439546656
15439552393
15439558008
15439562769
15439568445
15439573877
15439578333
15439583094
15439589747
15439595728
15439600550
15439607019
15439611963
15439618616
15439623499
15439628260
15439634973
15439639307
15439645227
15439650110
15439654932
15439660181
15439664514
15439670923
15439676904
15439683618
15439688562
15439694361
15439700037
15439705896
15439712305
15439717004
15439723962
15439730005
15439735864
15439742639
15439748621
15439753259
15439759607
15439765894
15439770837
15439777612
15439782800
15439789392
15439795923
15439800806
15439806787
15439812219
15439818567
15439823266
15439829370
15439835229
15439840356
15439846643
15439851404
15439858056
15439863488
15439870508
15439876184
15439881555
15439887841
15439893579
15439899316
15439905420
15439911340
15439917810
15439923303
15439928552
15439937280
15439942529
15439948754
15439956201
15439966271
15439973535
15439981347
15439987451
15439993554
15440001122
15440005395
15440012963
15440019189
15440025414
15440030602
15440037743
15440042626
15440050134
15440054284
15440061913
15440070702
15440076867
15440081567
15440086755
15440090295
15440096154
15440101525
15440106896
15440111474
15440117455
15440122399
15440127953
15440133813
15440139062
15440144188
15440149193
15440154748
15440159020
15440164391
15440169335
15440175805
15440184777
15440189782
15440197228
15440203087
15440209008
15440214074
15440220360
15440226342
15440231102
15440236656
15440241112
15440246666
15440250939
15440256432
15440263146
15440268090
15440272850
15440277611
15440282311
15440286766
15440291649
15440296898
15440303368
15440309288
15440315880
15440323021
15440327904
15440333641
15440337303
15440344505
15440349510
15440354881
15440359032
15440364830
15440370750
15440375877
15440381981
15440387291
15440395103
15440402244
15440409691
15440415916
15440422569
15440429344
15440434471
15440439049
15440444114
15440449547
15440453758
15440458275
15440462852
15440468101
15440472007
15440477317
15440481590
15440485923
15440490501
15440495079
15440500206
15440505394
15440510337
15440514000
15440518821
15440524314
15440528831
15440535118
15440541893
15440546714
15440551841
15440555076
15440561607
15440566795
15440572105
15440577659
15440583091
15440587974
15440592796
15440598960
15440603050
15440608299
15440613059
15440619407
15440624473
15440629966
15440633384
15440639060
15440644431
15440650047
15440655112
15440660422
15440664146
15440669395
15440674216
15440678001
15440683433
15440687217
15440693381
15440697715
15440704001
15440708823
15440713523
15440718467
15440725059
15440729453
15440734580
15440741416
15440748252
15440754416
15440759177
15440764853
15440769736
15440776572
15440781333
15440784934
15440793540
15440798240
15440805930
15440813498
15440821311
15440824973
15440833457
15440837180
15440844199
15440847617
15440854819
15440858603
15440864646
15440870688
15440876914
15440881735
15440887534
15440892050
15440897055
15440903098
15440909750
15440914389
15440919943
15440925070
15440933005
15440937888
15440942343
15440949118
15440953574
15440959738
15440967306
15440971945
15440978110
15440984213
15440990134
15440995077
15441000754
15441006918
15441013205
15441019491
15441024557
15441030722
15441036276
15441041708
15441047812
15441052816
15441060202
15441062643
15441071737
15441077719
15441087118
15441094870
15441102194
15441107809
15441115927
15441120199
15441130453
15441135336
15441142904
15441147360
15441153158
15441158407
15441165670
15441172323
15441179037
15441184713
15441192220
15441197408
15441203085
15441208395
15441214925
15441221517
15441227987
15441232626
15441239034
15441243551
15441249471
15441253988
15441259176
15441266195
15441271627
15441276144
15441283468
15441289449
15441294332
15441300619
15441307393
15441315877
15441322896
15441328573
15441334066
15441340108
15441346273
15441350484
15441357808
15441363485
15441369039
15441374288
15441380574
15441385579
15441392110
15441397847
15441404866
15441410482
15441416585
15441421407
15441433736
15441438436
15441444966
15441449727
15441454793
15441460469
15441466451
15441470418
15441476460
15441480061
15441487081
15441493489
15441498921
15441506978
15441511739
15441517659
15441523396
15441529622
15441535725
15441539265
15441547383
15441555501
15441560139
15441565694
15441571675
15441578389
15441582722
15441589253
15441594441
15441602803
15441608113
15441612935
15441618855
15441623738
15441629536
15441633992
15441640523
15441644124
15441652302
15441657551
15441663655
15441667195
15441674214
15441679524
15441684285
15441692280
15441699482
15441705769
15441712178
15441717366
15441722920
15441730000
15441735188
15441740071
15441746174
15441750386
15441758259
15441762898
15441767170
15441773884
15441778584
15441787007
15441791706
15441798176
15441802326
15441807331
15441812885
15441817890
15441823139
15441830402
15441838032
15441843281
15441848896
15441853657
15441858784
15441865559
15441871052
15441876606
15441882709
15441891376
15441895771
15441904438
15441910602
15441915607
15441921711
15441929401
15441933368
15441940693
15441945636
15441951984
15441958271
15441963092
15441968464
15441974262
15441980365
15441985431
15441990253
15441995197
15442000568
15442006488
15442012287
15442022052
15442029071
15442033893
15442040546
15442045246
15442052020
15442056354
15442060565
15442067035
15442070697
15442079852
15442083759
15442090167
15442095661
15442101825
15442105060
15442112262
15442118671
15442124347
15442129047
15442134174
15442140704
15442145221
15442151263
15442156451
15442162372
15442169086
15442174518
15442178302
15442185321
15442188983
15442197589
15442203631
15442208453
15442215289
15442221087
15442226275
15442232013
15442237567
15442242511
15442247149
15442251605
15442260211
15442266192
15442272296
15442276995
15442282061
15442289935
15442295855
15442302264
15442308612
15442315387
15442322650
15442332476
15442338214
15442341509
15442347369
15442352130
15442358538
15442364947
15442369952
15442373797
15442381426
15442386126
15442392535
15442397479
15442403338
15442409014
15442414385
15442418780
15442424395
15442428851
15442434710
15442440020
15442445574
15442450762
15442456927
15442461443
15442467425
15442471819
15442477007
15442484209
15442489764
15442496355
15442503496
15442509112
15442514849
15442520037
15442525652
15442532122
15442534380
15442544085
15442549883
15442556353
15442558306
15442566912
15442573137
15442579973
15442582232
15442592119
15442597612
