15582431178
15582437892
15582442591
15582448329
15582453761
15582459315
15582463954
15582468836
15582473536
15582478968
15582484034
15582488673
15582494227
15582498072
15582503504
15582509058
15582514552
15582520045
15582525294
15582530909
15582536402
15582541163
15582546351
15582552271
15582558558
15582563685
15582569239
15582575770
15582581263
15582586512
15582591334
15582595545
15582602808
15582613428
15582619593
15582625269
15582630640
15582634974
15582641443
15582646997
15582653833
15582661585
15582669886
15582676050
15582682398
15582687830
15582693811
15582700281
15582705469
15582712061
15582717066
15582725733
15582733301
15582739588
15582747278
15582750635
15582758936
15582765466
15582772791
15582780847
15582786768
15582793604
15582799524
15582806543
15582812158
15582818750
15582824792
15582831689
15582837183
15582844202
15582849390
15582856409
15582860376
15582868188
15582871911
15582879480
15582885644
15582891382
15582897424
15582906335
15582912256
15582919214
15582923364
15582931909
15582935754
15582944177
15582951257
15582957544
15582962609
15582969323
15582975915
15582982873
15582989160
15582994104
15582999963
15583006860
15583012780
15583019982
15583027062
15583030663
15583039330
15583043115
15583051660
15583055566
15583064233
15583068139
15583077599
15583084069
15583090661
15583095910
15583104638
15583114404
15583122887
15583129296
15583135766
15583143212
15583152001
15583162377
15583174950
15583181115
15583190758
15583195458
15583207482
15583216271
15583222985
15583227929
15583239281
15583245507
15583251671
15583259728
15583264794
15583271935
15583277062
15583283287
15583288475
15583295006
15583300377
15583307335
15583313256
15583322472
15583326866
15583335045
15583341698
15583348473
15583355431
15583361717
15583367577
15583372215
15583379540
15583386559
15583393333
15583398949
15583406517
15583413902
15583420799
15583426231
15583433494
15583439171
15583446861
15583454613
15583462425
15583468407
15583476036
15583481285
15583487816
15583494591
15583501304
15583506492
15583513206
15583520042
15583527488
15583533409
15583540550
15583547386
15583553062
15583559654
15583565330
15583572288
15583579124
15583586082
15583591880
15583599388
15583606895
15583612754
15583620750
15583627891
15583636375
15583642051
15583649986
15583658164
15583664451
15583671836
15583676353
15583686301
15583690940
15583699668
15583704429
15583715171
15583722861
15583728904
15583735313
15583744407
15583749106
15583758079
15583762778
15583770347
15583776633
15583785544
15583790183
15583801291
15583806479
15583815757
15583823386
15583834006
15583840720
15583845725
15583853171
15583861472
15583869284
15583874655
15583879111
15583882468
15583889243
15583894309
15583900107
15583903891
15583909140
15583914878
15583919577
15583925253
15583928671
15583935751
15583941672
15583945700
15583948691
15583955527
15583958579
15583965415
15583967123
15583974081
15583977988
15583982626
15583987326
15583991904
15583998740
15584008383
15584012961
15584019003
15584023886
15584029929
15584034506
15584039572
15584046042
15584050864
15584057028
15584060812
15584068686
15584072714
15584080160
15584083944
15584091269
15584096945
15584103171
15584108908
15584114767
15584119955
15584126120
15584130758
15584137289
15584144674
15584150045
15584156027
15584161398
15584167074
15584170492
15584178488
15584183615
15584190206
15584196798
15584203634
15584208700
15584214315
15584219259
15584226522
15584232260
15584238424
15584244405
15584249960
15584255758
15584259603
15584267233
15584271627
15584278402
15584283712
15584289999
15584296957
15584302938
15584309591
15584315450
15584320028
15584326864
15584331869
15584338399
15584342977
15584346883
15584353719
15584357442
15584365926
15584372152
15584377523
15584382589
15584390157
15584396871
15584404134
15584413656
15584419759
15584426046
15584432637
15584438436
15584443258
15584446553
15584454427
15584461385
15584467244
15584473165
15584477498
15584480733
15584488179
15584493856
15584499349
15584503804
15584508870
15584515340
15584521504
15584524983
15584532491
15584536214
15584544209
15584547444
15584555257
15584558614
15584567220
15584570699
15584579182
15584582661
15584589803
15584593831
15584601643
15584605916
15584613667
15584617268
15584623433
15584628499
15584634663
15584639485
15584644429
15584649739
15584656453
15584661702
15584668660
15584675007
15584681721
15584686970
15584692158
15584697041
15584702351
15584709309
15584715046
15584719990
15584725850
15584730671
15584734394
15584743733
15584747517
15584754597
15584760884
15584766987
15584772053
15584776997
15584782185
15584789875
15584794575
15584799641
15584805805
15584811543
15584818318
15584820637
15584830341
15584834126
15584840962
15584845417
15584852497
15584857807
15584863239
15584869465
15584876728
15584881489
15584888142
15584892902
15584898518
15584905415
15584907490
15584916096
15584920002
15584928364
15584934528
15584941364
15584946918
15584953632
15584958698
15584968830
15584973408
15584980243
15584988544
15584993915
15585000019
15585010151
15585017597
15585027179
15585037494
15585048603
15585054157
15585065753
15585073627
15585082294
15585089252
15585096332
15585106464
15585114704
15585120929
15585129352
15585138690
15585147052
15585153644
15585161334
15585169757
15585178180
15585185138
15585189899
15585200275
15585205218
15585217364
15585222430
15585232318
15585239825
15585249042
15585255878
15585262652
15585271991
15585279681
15585286334
15585296100
15585303546
15585312823
15585319232
15585327411
15585336261
15585343890
15585352252
15585358233
15585367877
15585376177
15585383746
15585388446
15585397113
15585403826
15585414080
15585421160
15585429400
15585437762
15585446612
15585452960
15585461871
15585468829
15585476519
15585484881
15585492571
15585501665
15585509417
15585515704
15585523821
15585531328
15585538531
15585546526
15585552996
15585562090
15585572466
15585579668
15585586687
15585595415
15585601885
15585610491
15585617266
15585625750
15585636126
15585645403
15585651873
15585659868
15585668535
15585673601
15585683306
15585695207
15585707048
15585715105
15585724260
15585731462
15585737749
15585747148
15585753374
15585760698
15585770158
15585779436
15585786516
15585791399
15585801591
15585807573
15585817033
15585824785
15585834856
15585843767
15585851213
15585862199
15585868425
15585876359
15585884904
15585893571
15585900285
15585906511
15585915544
15585925187
15585934892
15585940873
15585950456
15585956315
15585965165
15585971452
15585977983
15585984208
15585992875
15586001054
15586007279
15586014970
15586021562
15586027726
15586036637
15586042985
15586047929
15586058549
15586065751
15586073808
15586080460
15586088273
15586095658
15586103287
15586110062
15586117081
15586123429
15586131730
15586138749
15586145890
15586153031
15586158585
15586166459
15586174210
15586178238
15586188553
15586193436
15586204667
15586209671
15586220169
15586224686
15586233292
15586240189
15586249344
15586256974
15586264237
15586272476
15586279618
15586285965
15586294449
15586300736
15586309647
15586318863
15586325455
15586333328
15586341324
15586347794
15586354935
15586362625
15586370743
15586377151
15586383621
15586389175
15586394669
15586400650
15586406082
15586411697
15586415543
15586420914
15586426102
15586432266
15586436844
15586442581
15586447037
15586452408
15586457229
15586464065
15586469864
15586476578
15586480972
15586485306
15586491531
15586497940
15586503128
15586507827
15586516006
15586521682
15586526138
15586531753
15586536697
15586545486
15586550003
15586559097
15586563980
15586572341
15586576675
15586584976
15586589614
15586595596
15586601455
15586607192
15586613601
15586621108
15586624954
15586631851
15586636306
15586638137
15586647170
15586653274
15586659744
15586664687
15586670242
15586676040
15586680740
15586684280
15586691665
15586695571
15586702651
15586709914
15586715346
15586720534
15586725112
15586730666
15586737624
15586742629
15586748244
15586754958
15586760329
15586767165
15586772902
15586778884
15586784316
15586788405
15586794326
15586800124
15586803786
15586810500
15586813918
15586820937
15586825942
15586832656
15586837905
15586843520
15586852187
15586857619
15586861953
15586867995
15586872878
15586879164
15586885634
15586890578
15586895400
15586901869
15586906752
15586913588
15586918044
15586923781
15586928359
15586933913
15586940382
15586944716
15586951552
15586956923
15586963271
15586968092
15586972243
15586977187
15586983656
15586987990
15586994826
15586999708
15587004774
15587009352
15587013624
15587021559
15587027663
15587033217
15587037245
15587044752
15587047499
15587055556
15587059462
15587066664
15587070509
15587080153
15587086012
15587091505
15587095472
15587101576
15587105299
15587112745
15587117872
15587123610
15587132948
15587139357
15587145948
15587152296
15587157606
15587163221
15587167982
15587174757
15587183302
15587188795
15587193739
15587200270
15587204054
15587210584
15587215223
15587221754
15587227064
15587232313
15587237867
15587242140
15587245313
15587252027
15587255262
15587262830
15587266004
15587272779
15587277967
15587282972
15587288526
15587293043
15587297803
15587303724
15587309644
15587315015
15587320142
15587325513
15587329908
15587336072
15587342603
15587351697
15587357984
15587365003
15587369397
15587376417
15587381421
15587386609
15587392469
15587398023
15587404004
15587407483
15587415784
15587419507
15587427503
15587430921
15587438916
15587442395
15587450208
15587455579
15587461682
15587466687
15587472241
15587476819
15587483289
15587489392
15587494458
15587500684
15587506299
15587512097
15587518323
15587522778
15587528455
15587533093
15587539197
15587544141
15587549085
15587559094
15587564404
15587573743
15587580579
15587588025
15587595410
15587603406
15587610730
15587619092
15587625195
15587632519
15587641308
15587647595
15587655957
15587660657
15587671032
15587676404
15587685376
15587692334
15587700207
15587707531
15587715954
15587722546
15587730725
15587738476
15587747143
15587753857
15587762646
15587768994
15587778271
15587787670
15587796337
15587804211
15587814526
15587825756
15587835400
15587841686
15587852367
15587859753
15587869823
15587877636
15587888500
15587893383
15587903698
15587910717
15587920116
15587927440
15587936718
15587944469
15587952648
15587959850
15587967968
15587974621
15587983715
15587993114
15587999889
15588008861
15588018383
15588025035
15588033763
15588042186
15588048961
15588056835
15588065135
15588073802
15588080211
15588087840
15588092418
15588101817
15588109935
15588116344
15588122936
15588132884
15588137523
15588146617
15588153575
15588162242
15588168651
15588175914
15588182445
15588191600
15588199351
15588206554
15588215465
15588223094
15588229503
15588239635
15588246104
15588255259
15588262217
15588270396
15588278880
15588286082
15588294932
15588299815
15588310740
15588315928
15588327220
15588332469
15588343150
15588348460
15588358470
15588366404
15588374583
15588381175
15588392039
15588398936
15588407786
15588414561
15588423228
15588429575
15588439036
15588445750
15588455088
15588462351
15588471445
15588477793
15588483713
15588494822
15588503062
15588512217
15588519907
15588528147
15588535593
15588543406
15588550120
15588558603
15588565683
15588573435
15588579416
15588587351
15588598032
15588606638
15588616343
15588624277
15588633127
15588643503
15588649301
15588661692
15588671213
15588678598
15588686228
15588696237
15588705820
15588714121
15588722666
15588733591
15588742563
15588749521
15588758737
15588767221
15588774911
15588779611
15588788339
15588795541
15588805063
15588812448
15588820871
15588825632
15588835031
15588842172
15588851022
15588858407
15588867624
15588872079
15588881723
15588888803
15588896066
15588902108
15588909860
15588917794
15588928109
15588934640
15588942514
15588947824
15588953073
15588959481
15588964242
15588970956
15588976510
15588980538
15588986337
15588990426
15588996469
15589000924
15589004525
15589011910
15589017953
15589021981
15589027352
15589033334
15589036446
15589042733
15589047128
15589052926
15589057748
15589063790
15589068307
15589074776
15589080086
15589085213
15589090157
15589095040
15589100045
15589106637
15589111153
15589115670
15589122018
15589127205
15589131051
15589136727
15589143807
15589147896
15589153206
15589159066
15589163338
15589168648
15589174569
15589177742
15589184945
15589190987
15589195198
15589201485
15589205391
15589211007
15589216072
15589220894
15589228035
15589232308
15589239266
15589244088
15589251778
15589258248
15589264168
15589268196
15589277413
15589284676
15589290535
15589296944
15589304085
15589310249
15589315743
15589317635
15589328621
15589335274
15589339668
15589345772
15589350288
15589354927
15589359200
15589365547
15589370918
15589375862
15589380501
15589385628
15589390816
15589397957
15589402717
15589409553
15589413154
15589419929
15589423836
15589430610
15589434883
15589442512
15589447761
15589455086
15589459297
15589465095
15589469063
15589476997
15589481086
15589489448
15589493721
15589501533
15589508003
15589513008
15589516792
15589523445
15589527168
15589535347
15589540168
15589548469
15589552742
15589560249
15589564643
15589570808
15589576057
15589581794
15589586372
15589593696
15589598152
15589605354
15589611335
15589617317
15589622443
15589628059
15589633186
15589639411
15589642280
15589652351
15589660102
15589665168
15589672370
15589678535
15589686408
15589693854
15589703254
15589708930
15589716071
15589720893
15589726264
15589731696
15589739142
15589744330
15589751166
15589757575
15589762031
15589767341
15589774421
15589779242
15589786017
15589794745
15589801276
15589807624
15589814399
15589816474
15589827338
15589829596
15589838629
15589848700
15589854743
15589860968
15589866767
15589874823
15589881232
15589887213
15589897101
15589901679
15589908453
15589913703
15589920599
15589927741
15589931586
15589939459
15589945380
15589950018
15589956427
15589961249
15589964301
15589972845
15589978278
15589982916
15589990118
15589995062
15590001471
15590006048
15590011542
15590016730
15590021063
15590026739
15590032477
15590036810
15590043890
15590049200
15590055060
15590059393
15590065252
15590071844
15590078253
15590083136
15590088446
15590094061
15590101690
15590109991
15590116644
15590124090
15590132330
15590138189
15590145513
15590151800
15590160528
15590167364
15590175299
15590183050
15590190862
15590200933
15590208257
15590217413
15590222295
15590230047
15590238470
15590247076
15590253912
15590261724
15590266668
15590276495
15590285467
15590293157
15590301885
15590307683
15590316717
15590323003
15590329717
15590338079
15590343389
15590355169
15590362432
15590369085
15590378728
15590385015
15590394170
15590398809
15590410039
15590414678
15590426335
15590433843
15590441777
15590447393
15590455876
15590465398
15590472356
15590481816
15590491033
15590497624
15590505864
15590514409
15590521733
15590530034
15590538884
15590552007
15590560490
15590569585
15590576909
15590584782
15590592168
15590599065
15590612126
15590619023
15590626286
15590634038
15590639531
15590647282
15590655766
15590664738
15590670903
15590680180
15590684575
15590693791
15590700383
15590709294
15590716374
15590725895
15590733464
15590741276
15590750309
15590755314
15590764164
15590771855
15590780583
15590788334
15590795292
15590802921
15590810429
15590817936
15590826908
15590836430
15590843082
15590852360
15590861515
15590867130
15590876957
15590885380
15590894108
15590903690
15590909672
15590919132
15590925968
15590936893
15590945560
15590953068
15590963993
15590971683
15590982120
15590990238
15591000980
15591009708
15591019046
15591027896
15591037601
15591045047
15591053165
15591063602
15591072818
15591081729
15591089481
15591098087
15591100833
15591113284
15591122012
15591128665
15591136478
15591145938
15591149112
15591163821
15591172488
15591179813
15591185794
15591199527
15591207339
15591215762
15591223758
15591230777
15591239810
15591246585
15591255862
15591264651
15591269839
15591281985
15591292300
15591299807
15591311221
15591318301
15591331607
15591338015
15591348757
15591356997
15591363833
15591369082
15591382754
15591390200
15591399050
15591407473
15591415041
15591423464
15591430849
15591437258
15591442995
15591450137
15591455935
15591462099
15591467776
15591472597
15591477297
15591482912
15591487734
15591494326
15591497805
15591505129
15591510439
15591517214
15591522097
15591527346
15591533632
15591538820
15591545046
15591551211
15591556215
15591561892
15591568544
15591573549
15591579470
15591584108
15591591127
15591597292
15591603640
15591608828
15591613344
15591616762
15591624880
15591628237
15591635500
15591640993
15591648134
15591653627
15591658449
15591663088
15591669557
15591675905
15591681093
15591686281
15591692812
15591698793
15591700807
15591708864
15591715089
15591720094
15591726137
15591730959
15591737123
15591742067
15591747255
15591753419
15591758607
15591765504
15591770570
15591777223
15591783571
15591791261
15591796937
15591802186
15591807191
15591814271
15591820619
15591822755
15591833131
15591840028
15591846498
15591852968
15591857728
15591861451
15591870301
15591874147
15591882936
15591890260
15591896424
15591902101
15591908082
15591913758
15591918946
15591923524
15591929750
15591938539
15591945924
15591952149
15591957765
15591965272
15591971620
15591976319
15591981080
15591987428
15591993836
15592000001
15592004212
15592008729
15592015321
15592020448
15592025391
15592030030
15592037049
15592042237
15592047608
15592053406
15592057923
15592062012
15592069092
15592074036
15592079407
15592083558
15592090333
15592095399
15592101502
15592106019
15592112305
15592119446
15592121338
15592129883
15592136231
15592140626
15592146485
15592152344
15592156189
15592176026
15592181214
15592188050
15592193482
15592199646
15592204102
15592209290
15592216553
15592222351
15592227967
15592236206
15592242981
15592249024
15592253479
15592256897
15592266113
15592269715
15592276795
15592280762
15592287537
15592292542
15592298584
15592304199
15592311035
15592316101
15592322083
15592326965
15592332459
15592336975
15592343506
15592349487
15592354919
15592360107
15592366272
15592372192
15592375732
15592382446
15592385986
15592393066
15592398010
15592403747
15592408874
15592414978
15592419739
15592426574
15592432434
15592437927
15592442810
15592448486
15592456726
15592460205
15592467285
15592470764
15592478637
15592483703
15592489257
15592494690
15592500732
15592506591
15592515319
15592522094
15592527954
15592534606
15592541320
15592546752
15592554260
15592561218
15592569030
15592575805
15592580932
15592586730
15592588683
15592597411
15592601318
15592609435
15592612853
15592621886
15592625365
15592632507
15592635986
15592646545
15592652953
15592660827
15592667602
15592675658
15592682555
15592690673
15592698730
15592705810
15592712218
15592718993
15592727538
15592734496
15592744140
15592750487
15592758910
15592761840
15592774474
15592782225
15592791381
15592799437
15592805785
15592815001
15592821349
15592828978
15592838133
15592845091
15592854247
15592861998
15592869139
15592877135
15592885741
15592892027
15592898741
15592907469
15592910216
15592923277
15592930602
15592937010
15592941771
15592953307
15592958922
15592968016
15592974913
15592983031
15592990904
15592999510
15593007200
15593014403
15593020689
15593029295
15593036253
15593045591
15593052000
15593059874
15593067015
15593076170
15593082640
15593090513
15593096739
15593104124
15593112242
15593119322
15593128172
15593135557
15593143370
15593150450
15593157591
15593164060
15593172300
15593180479
15593187498
15593195921
15593203977
15593210569
15593218565
15593224973
15593230161
15593242796
15593247922
15593258176
15593265867
15593273435
15593280271
15593288816
15593301267
15593311399
15593325681
15593336545
15593348508
15593356565
15593364316
15593371946
15593383847
15593393613
15593400388
15593411130
15593418271
15593426755
15593433957
15593442258
15593447080
15593457822
15593462949
15593473264
15593478696
15593490292
15593498166
15593506467
15593513364
15593522153
15593527219
15593536862
15593542477
15593552243
15593561459
15593569577
15593574948
15593584897
15593593075
15593600461
15593606991
15593614499
15593620907
15593626889
15593632931
15593641232
15593647885
15593656735
15593662899
15593671322
15593680966
15593689938
15593696835
15593703793
15593712033
15593717160
15593726620
15593734616
15593744564
15593749935
15593760128
15593765377
15593775021
15593782040
15593790768
15593798092
15593804745
15593811276
15593819820
15593827267
15593836056
15593842342
15593850399
15593857357
15593862179
15593874203
15593879330
15593889889
15593894893
15593903072
15593910641
15593919002
15593925228
15593933590
15593940304
15593950130
15593957576
15593964595
15593972835
15593979976
15593987117
15593996761
15594003841
15594010067
15594014278
15594020504
15594026485
15594029903
15594038936
15594043086
15594051570
15594055599
15594063350
15594072200
15594076412
15594084712
15594088313
15594095210
15594100765
15594106563
15594110835
15594116389
15594121089
15594126216
15594131160
15594138118
15594142268
15594147761
15594151912
15594158382
15594162532
15594167659
15594171931
15594177424
15594182368
15594188045
15594192683
15594197688
15594202327
15594207698
15594210750
15594218318
15594221309
15594228450
15594233088
15594239619
15594242366
15594248164
15594252375
15594258174
15594262873
15594269954
15594275630
15594280635
15594285334
15594290583
15594295527
15594301387
15594310420
15594315058
15594321345
15594326533
15594331233
15594338557
15594343012
15594349360
15594354243
15594357905
15594364497
15594370356
15594377314
15594380854
15594387934
15594392939
15594398188
15594405573
15594409846
15594416438
15594421992
15594426508
15594433527
15594438166
15594444331
15594450678
15594455622
15594462214
15594467707
15594472468
15594478327
15594483515
15594488520
15594495844
15594501520
15594507319
15594512446
15594517878
15594523249
15594530390
15594535639
15594541926
15594548639
15594553644
15594558344
15594565119
15594570185
15594578363
15594583185
15594587091
15594596247
15594602228
15594608148
15594611689
15594618036
15594623407
15594631647
15594637750
15594644586
15594651300
15594657160
15594663080
15594670465
15594676325
15594682489
15594687006
15594692804
15594699152
15594704340
15594708734
15594715875
15594720148
15594726312
15594730524
15594736810
15594742181
15594748346
15594754449
15594760004
15594765497
15594770013
15594775445
15594780633
15594785638
15594791681
15594797113
15594800287
15594807184
15594812982
15594817254
15594822259
15594828851
15594834527
15594839959
15594843316
15594849969
15594855584
15594860345
15594864984
15594870721
15594876031
15594882379
15594888055
15594893914
15594898492
15594903924
15594910394
15594915338
15594921685
15594927972
15594933831
15594939324
15594944024
15594949883
15594955743
15594959832
15594966180
15594972344
15594979241
15594984795
15594989739
15594996026
15595001519
15595006280
15595013055
15595018121
15595024102
15595030328
15595036004
15595041680
15595047234
15595051812
15595060906
15595065850
15595072076
15595077935
15595083184
15595089715
15595093133
15595099663
15595105218
15595111077
15595116326
15595122490
15595124444
15595133904
15595137505
15595144219
15595149041
15595155510
15595162651
15595173394
15595178582
15595190544
15595195916
15595206719
15595212151
15595223809
15595233025
15595242119
15595248039
15595257561
15595265373
15595274162
15595284905
15595293938
15595302544
15595309502
15595318352
15595326103
15595334831
15595343681
15595350700
15595359672
15595368828
15595376823
15595383476
15595392753
15595399406
15595406669
15595416496
15595424125
15595432914
15595439933
15595447929
15595454399
15595465141
15595472099
15595481681
15595488151
15595495780
15595504447
15595513237
15595520072
15595529228
15595536308
15595541313
15595552909
15595561027
15595568717
15595576469
15595585136
15595592277
15595599845
15595609733
15595617057
15595623466
15595632865
15595640494
15595649711
15595656242
15595664420
15595673453
15595678641
15595687552
15595695182
15595705008
15595712455
15595721000
15595728934
15595737601
15595744315
15595752982
15595760001
15595769278
15595778739
15595785758
15595794242
15595800528
15595809745
15595818717
15595825369
15595832572
15595843436
15595848563
15595858573
15595865653
15595874381
15595882071
15595889945
15595896414
15595905325
15595914603
15595923575
15595929983
15595938467
15595947256
15595955130
15595963797
15595969961
15595980826
15595989737
15595996023
15596005362
15596011770
15596020987
15596027517
15596035269
15596044241
15596051504
15596060537
15596067739
15596076284
15596083364
15596092276
15596099539
15596108633
15596118887
15596128591
15596136099
15596141531
15596153005
15596162771
15596170278
15596178335
15596187978
15596196157
15596203725
15596211538
15596221792
15596229238
15596236684
15596245779
15596252065
15596260793
15596269887
15596276845
15596284902
15596293386
15596300039
15596309255
15596314199
15596324453
15596332631
15596340444
15596348073
15596356618
15596364064
15596372426
15596381704
15596388539
15596395253
15596405385
15596411977
15596420644
15596429250
15596436574
15596445668
15596453908
15596462514
15596470632
15596477101
15596482106
15596493459
15596500844
15596509694
15596516835
15596525380
15596532216
15596543019
15596550954
15596558583
15596565175
15596574940
15596581593
15596589833
15596599293
15596607411
15596613575
15596617054
15596626027
15596630116
15596636403
15596641835
15596649037
15596654835
15596661610
15596666615
15596671925
15596678456
15596683277
15596687794
15596695240
15596700978
15596709400
15596713917
15596718983
15596726368
15596732838
15596739552
15596746082
15596751698
15596758961
15596764088
15596771839
15596778980
15596783985
15596792347
15596798573
15596805408
15596813343
15596819324
15596826282
15596832386
15596838978
15596844898
15596853565
15596859669
15596866749
15596873524
15596879810
15596887623
15596895923
15596903797
15596910938
15596917042
15596923877
15596928943
15596933887
15596939869
15596945179
15596952808
15596959644
15596963428
15596969104
15596973438
15596978321
15596982227
15596988819
15596994739
15597000415
15597004566
15597009693
15597015247
15597020862
15597026538
15597033801
15597039295
15597045398
15597050525
15597055225
15597061572
15597066394
15597072315
15597077014
15597084155
15597087940
15597095081
15597100757
15597106189
15597111743
15597117541
15597124927
15597129443
15597136951
15597141711
15597147937
15597152454
15597158801
15597165698
15597171924
15597176501
15597182483
15597188403
15597193835
15597200000
15597206286
15597214343
15597220141
15597225024
15597232043
15597236499
15597243396
15597249438
15597255236
15597263781
15597269458
15597273791
15597280749
15597285144
15597291857
15597296557
15597303393
15597308215
15597315295
15597320300
15597327014
15597331713
15597338122
15597343127
15597350878
15597354357
15597361804
15597367175
15597372729
15597379443
15597384814
15597388903
15597395617
15597401965
15597407702
15597412524
15597417895
15597422839
15597428149
15597436449
15597444201
15597454211
15597459215
15597466295
15597473620
15597479174
15597486193
15597489977
15597497362
15597504931
15597509874
15597516527
15597522997
15597529039
15597534960
15597541552
15597547228
15597554491
15597565050
15597569750
15597573046
15597581530
15597588182
15597593126
15597598070
15597604113
15597608690
15597613756
15597618700
15597624925
15597632067
15597636766
15597641893
15597648668
15597653185
15597658922
15597663500
15597668199
15597673326
15597680467
15597685411
15597690843
15597697740
15597702013
15597708360
15597713609
15597718614
15597724596
15597730455
15597735338
15597741258
15597746873
15597752733
15597756395
15597765672
15597771776
15597777696
15597782640
15597791612
15597796312
15597807359
15597814866
15597822191
15597830247
15597837327
15597844835
15597853807
15597861192
15597871324
15597880906
15597888291
15597895921
15597905381
15597912522
15597918931
15597928330
15597936387
15597944749
15597951890
15597961533
15597968186
15597977280
15597983811
15597994126
15597999924
15598010850
15598016221
15598029160
15598034592
15598044358
15598049973
15598061570
15598070298
15598078049
15598085251
15598093735
15598101182
15598109849
15598117905
15598127915
15598134873
15598145310
15598152207
15598162400
15598174912
15598184555
15598190171
15598200852
15598208664
15598216721
15598224838
15598234848
15598243210
15598250900
15598260178
15598266708
15598273178
15598283615
15598290146
15598298508
15598307785
15598316818
15598324203
15598333420
15598342514
15598347397
15598358566
15598363632
15598373215
15598380356
15598388046
15598397995
15598406601
15598416244
15598424423
15598433578
15598441940
15598449813
15598458053
15598464401
15598472641
15598481369
15598489242
15598497787
15598504501
15598513717
15598522750
15598531661
15598536971
15598547042
15598552718
15598563583
15598570602
15598577438
15598587020
15598595199
15598603133
15598610824
15598617355
15598626693
15598635787
15598643416
15598652450
15598659164
15598667708
15598675399
15598684493
15598689559
15598699325
15598706405
15598715560
15598723250
15598732711
15598740401
15598748641
15598755172
15598764388
15598771529
15598779280
15598788008
15598795149
15598803816
15598809004
15598820479
15598828780
15598835311
15598843001
15598852156
15598862959
15598869490
15598876265
15598886214
15598891280
15598900557
15598907515
15598915999
15598926497
15598932905
15598941267
15598949629
15598955427
15598964094
15598969832
15598983626
15598996260
15599003279
15599015669
15599023603
15599032332
15599039534
15599049238
15599055525
15599064802
15599072004
15599081770
15599089460
15599098249
15599104780
15599114607
15599123945
15599129133
15599139204
15599148115
15599156660
15599163313
15599171674
15599179914
15599188276
15599196821
15599202619
15599211774
15599217878
15599228315
15599233320
15599240583
15599246503
15599252119
15599256879
15599262189
15599268354
15599275068
15599281354
15599288801
15599294294
15599300336
15599305219
15599311506
15599317121
15599322980
15599328656
15599335431
15599340741
15599347028
15599352277
15599359052
15599362592
15599370893
15599374799
15599383649
15599389936
15599396527
15599403058
15599407819
15599414289
15599418866
15599424726
15599432050
15599441510
15599444806
15599452619
15599458356
15599463361
15599470075
15599475385
15599482343
15599487408
15599493512
15599498517
15599503888
15599508405
15599516278
15599523785
15599529706
15599535321
15599542889
15599548077
15599554242
15599559735
15599566388
15599574200
15599579327
15599585125
15599591412
15599597882
15599603741
15599609601
15599617230
15599623517
15599629925
15599636456
15599643963
15599650555
15599656048
15599660504
15599671734
15599678997
15599682781
15599690716
15599694500
15599701641
15599705853
15599715008
15599719158
15599727581
15599731548
15599739361
15599742901
15599750774
15599754253
15599762981
15599766460
15599774273
15599780132
15599786053
15599790874
15599796673
15599801800
15599806683
15599812664
15599818584
15599823223
15599829204
15599835186
15599840435
15599845074
15599851482
15599857647
15599862469
15599869243
15599874004
15599880291
15599884319
15599891399
15599896282
15599902630
15599907818
15599913006
15599918682
15599923320
15599927227
15599932537
15599939495
15599945476
15599952739
15599955059
15599963604
15599969524
15599976177
15599982830
15599989665
15599991924
15600000713
15600007671
15600012309
15600018169
15600024455
15600029765
15600038066
15600043376
15600048381
15600055156
15600058513
15600064677
15600068950
15600075237
15600082561
15600088115
15600093791
15600099406
15600105327
15600109965
15600115764
15600121989
15600128764
15600133342
15600138957
15600144572
15600149089
15600156779
15600162150
15600167338
15600176860
15600183940
15600191020
15600198100
15600203715
15600214091
15600223613
15600231791
15600245280
15600253764
15600263713
15600272746
15600280741
15600287577
15600300089
15600307475
15600314860
15600324198
15600331461
15600340006
15600346720
15600352824
15600362833
15600370463
15600377421
15600385233
15600391764
15600400065
15600406412
15600414347
15600422953
15600427897
15600438029
15600443705
15600452006
15600456461
15600466166
15600472696
15600485087
15600495340
15600507914
15600519449
15600529337
15600540140
15600552652
15600564676
15600575968
15600587320
15600597330
15600610941
15600620218
15600629251
15600640177
15600646402
15600657938
15600667337
15600678506
15600689188
15600696085
15600705179
15600715433
15600723733
15600732217
15600742471
15600749795
15600757913
15600765481
15600771829
15600779580
15600788064
15600795816
15600804178
15600812051
15600818399
15600827005
15600835489
15600844461
15600852273
15600859170
15600867715
15600872598
15600883035
15600891702
15600898843
15600907998
15600916848
15600925820
15600933328
15600940652
15600948037
15600957375
15600965371
15600974160
15600983620
15600991860
15600999245
15601007851
15601010842
15601022805
15601032021
15601039529
15601048623
15601058510
15601064797
15601072060
15601081704
15601089943
15601098977
15601106911
15601116494
15601124184
15601132607
15601142556
15601151039
15601159951
15601168434
15601175637
15601183998
15601191567
15601200417
15601207436
15601216957
15601224281
15601232826
15601240273
15601249123
15601256142
15601266274
15601271462
15601281898
15601287392
15601297646
15601305641
15601312111
15601319618
15601329262
15601336647
15601344093
15601351600
15601359962
15601367286
15601376991
15601384315
15601392311
15601400490
15601410743
15601418373
15601427223
15601434791
15601443885
15601451393
15601459632
15601466896
15601476112
15601483802
15601493141
15601500465
15601508338
15601514686
15601523597
15601533119
15601541908
15601548377
15601556373
15601564796
15601572669
15601581763
15601590186
15601598609
15601606116
15601615516
15601623817
15601630714
15601639075
15601646644
15601653846
15601662818
15601670508
15601679542
15601686927
15601694434
15601703589
15601712378
15601719092
15601728858
15601735816
15601744361
15601751136
15601759314
15601768408
15601777014
15601783484
15601791602
15601800086
15601805518
15601818518
15601823767
15601833960
15601841650
15601852087
15601859229
15601866003
15601875952
15601887610
15601895300
15601902014
15601910010
15601914831
15601921850
15601927283
15601935950
15601941321
15601946997
15601952368
15601959448
15601964453
15601970862
15601976294
15601980749
15601986670
15601991491
15601996862
15602000464
15602008459
15602011755
15602018530
15602022009
15602032141
15602037024
15602042456
15602046911
15602052282
15602058142
15602064123
15602067480
15602074926
15602080603
15602085913
15602089086
15602095922
15602101538
15602107214
15602113867
15602119177
15602124487
15602130834
15602136083
15602142736
15602147619
15602153112
15602158178
15602164770
15602169531
15602175817
15602180273
15602187292
15602191991
15602198034
15602203954
15602207616
15602216161
15602223058
15602228063
15602234472
15602239721
15602245092
15602250951
15602256017
15602261815
15602269811
15602275670
15602280797
15602286596
15602291112
15602296666
15602303136
15602308690
15602315099
15602319799
15602325841
15602332555
15602337316
15602343358
15602349279
15602353063
15602361547
15602366735
15602373021
15602377050
15602383397
15602388402
15602394506
15602399999
15602407323
15602412816
15602418431
15602425816
15602431737
15602436681
15602443272
15602450353
15602455846
15602463475
15602469273
15602474095
15602477940
15602486302
15602492345
15602499486
15602504857
15602514134
15602518712
15602528477
15602534459
15602538548
15602545079
15602550084
15602556370
15602562169
15602570042
15602574437
15602577794
15602586216
15602589512
15602597813
15602601353
15602610508
15602614598
15602621312
15602626377
15602633152
15602638462
15602643895
15602648960
15602654026
15602659397
15602665989
15602670933
15602675633
15602681553
15602685703
15602691929
15602696934
15602701451
15602707310
15602713047
15602718357
15602724095
15602730930
15602735813
15602741795
15602746983
15602752659
15602758762
15602764927
15602769382
15602775852
15602780369
15602785862
15602793430
15602799473
15602804356
15602809299
15602815037
15602821812
15602827366
15602831943
15602837803
15602842563
15602849521
15602853916
15602860630
15602865391
15602868808
15602876621
15602882724
15602890903
15602894565
15602902012
15602905368
15602913791
15602919345
15602925205
15602928684
15602937046
15602940830
15602948032
15602953098
15602959568
15602964756
15602970676
15602976047
15602983859
15602990573
15602996250
15602999912
15603006992
15603012546
15603016635
15603021274
15603028232
15603033908
15603040012
15603043918
15603053012
15603057101
15603063327
15603068881
15603076755
15603090671
15603097751
15603108127
15603118625
15603126498
15603139071
15603146701
15603154025
15603164584
15603171725
15603179110
15603189364
15603196444
15603205661
15603214816
15603222689
15603230807
15603238436
15603247287
15603253634
15603261264
15603269808
15603277621
15603286715
15603294955
15603303439
15603310031
15603318697
15603327975
15603334567
15603341708
15603351656
15603356722
15603367831
15603375399
15603382174
15603391329
15603398287
15603404757
15603413668
15603422335
15603431490
15603438082
15603447054
15603453463
15603462313
15603471407
15603478487
15603487093
15603492342
15603501497
15603508944
15603518648
15603525789
15603534212
15603541964
15603551790
15603560335
15603568697
15603575106
15603583956
15603593660
15603601290
15603607637
15603616853
15603626314
15603633882
15603640352
15603648775
15603657137
15603662141
15603673494
15603681856
15603690584
15603698823
15603707918
15603715242
15603726045
15603732210
15603744600
15603749788
15603761140
15603770173
15603776704
15603783906
15603792817
15603800569
15603809541
15603816499
15603824922
15603835542
15603844087
15603852326
15603861909
15603869355
15603878572
15603885102
15603894685
15603901399
15603911103
15603919709
15603927583
15603937409
15603945771
15603955231
15603962922
15603972321
15603981965
15603990632
15604001008
15604008027
15604018952
15604025971
15604034028
15604043488
15604051362
15604059174
15604065888
15604073090
15604080780
15604088349
15604095124
15604103302
15604110993
15604119233
15604125397
15604133210
15604141327
15604147675
15604156403
15604166168
15604176666
15604183991
15604195038
15604205170
15604214081
15604222748
15604232269
15604239105
15604249298
15604258942
15604269073
15604276947
15604290192
15604299225
15604314056
15604323150
15604332428
15604340301
15604352569
15604367645
15604375946
15604386993
15604395721
15604408050
15604418121
15604426666
15604434417
15604444366
15604454803
15604462982
15604473541
15604484161
15604496124
15604507171
15604518035
15604526580
15604536163
15604545013
15604554778
15604563201
15604571929
15604580657
15604591460
15604600005
15604608184
15604616729
15604625762
15604634368
15604642608
15604651397
15604659514
15604668120
15604672454
15604686248
15604692962
15604701262
15604711882
15604718840
15604728179
15604735198
15604745879
15604751067
15604761931
15604770598
15604779753
15604790312
15604797392
15604808379
15604817656
15604826933
15604838164
15604847380
15604855132
15604862395
15604872832
15604883757
15604891692
15604900175
15604910429
15604926359
15604948088
15604968596
15604986601
15605005583
15605024748
15605043547
15605062956
15605080717
15605095365
15605103117
15605111051
15605119169
15605130521
15605143888
15605155912
15605171171
15605185087
15605198942
15605208646
15605217008
15605224332
15605232755
15605241483
15605249723
15605257535
15605265653
15605272611
15605280484
15605289090
15605297452
15605303983
15605313687
15605325040
15605333768
15605340421
15605347318
15605354764
15605364102
15605373990
15605381436
15605389249
15605397672
15605405423
15605413724
15605421903
15605429471
15605436978
15605444485
15605452786
15605461697
15605468961
15605477444
15605486905
15605494229
15605502957
15605510647
15605519314
15605527310
15605533475
15605543912
15605552151
15605559842
15605570096
15605578762
15605585720
15605594326
15605603970
15605611294
15605619046
15605629727
15605636135
15605645108
15605654812
15605663601
15605671536
15605681484
15605689297
15605697903
15605704495
15605712795
15605721951
15605731106
15605740078
15605747829
15605755215
15605762478
15605770412
15605777553
15605784634
15605794948
15605803188
15605810818
15605818569
15605826809
15605834743
15605842983
15605850185
15605854702
15605859829
15605862880
15605869533
15605875148
15605881435
15605885952
15605891079
15605895778
15605899929
15605905300
15605910122
15605915554
15605919216
15605924099
15605929714
15605933315
15605938137
15605943325
15605948085
15605953578
15605959438
15605962856
15605967983
15605973537
15605978542
15605982570
15605987453
15605992153
15605997524
15606002284
15606006557
15606011867
15606015529
15606022548
15606028774
15606033595
15606039516
15606045131
15606050563
15606055202
15606060573
15606067775
15606073756
15606081447
15606087978
15606096034
15606104457
15606112208
15606118983
15606127284
15606135158
15606141688
15606149806
15606156215
15606165919
15606173121
15606182460
15606189296
15606197230
15606206813
15606212977
15606218653
15606226588
15606234095
15606242823
15606249598
15606258753
15606265467
15606275782
15606285853
15606292689
15606299464
15606308985
15606313319
15606321681
15606329127
15606336207
15606343409
15606348719
15606356470
15606361842
15606368800
15606375696
15606382899
15606388331
15606395411
15606403223
15606410364
15606417933
15606426295
15606432642
15606439417
15606445337
15606453455
15606459375
15606468226
15606475855
15606483118
15606489893
15606495752
15606503565
15606511255
15606518763
15606525049
15606534204
15606540064
15606551477
15606558863
15606565332
15606572779
15606579553
15606587183
15606595911
15606601770
15606610437
15606616419
15606625208
15606631006
15606639429
15606646082
15606653833
15606660242
15606667688
15606673486
15606681665
15606687463
15606696191
15606703699
15606712121
15606718591
15606726404
15606732934
15606740320
15606747094
15606755334
15606762170
15606769983
15606776269
15606783349
15606789758
15606799096
15606806115
15606813806
15606821862
15606829980
15606836572
15606845544
15606854577
15606862573
15606869470
15606876794
15606886254
15606893884
15606901391
15606911462
15606916589
15606925561
15606933617
15606943322
15606951928
15606960717
15606969140
15606977929
15606985314
15606994042
15606999169
15607008813
15607016625
15607024499
15607029198
15607039513
15607047997
15607055748
15607062951
15607071007
15607077721
15607085656
15607093895
15607101830
15607109459
15607117333
15607124047
15607134667
15607142113
15607147606
15607154991
15607162194
15607170433
15607176109
15607183983
15607192650
15607199547
15607207176
15607214378
15607219811
15607228478
15607234154
15607241722
15607250816
15607257957
15607266075
15607272789
15607278953
15607287315
15607293541
15607301781
15607308372
15607316612
15607322716
15607331871
15607337974
15607347130
15607353355
15607360801
15607368431
15607377220
15607383934
15607393272
15607400230
15607407798
15607416465
15607422752
15607432029
15607439598
15607443992
15607451499
15607454795
15607462547
15607465965
15607475974
15607480613
15607486778
15607492698
15607498679
15607503196
15607509116
15607515037
15607520957
15607527671
15607531028
15607538779
15607545432
15607552085
15607560447
15607569907
15607578513
15607582542
15607591270
15607598044
15607602256
15607608726
15607613242
15607619529
15607624534
15607630820
15607635459
15607641257
15607646933
15607654075
15607661094
15607669333
15607674643
15607684836
15607689658
15607698874
15607703025
15607713523
15607721091
15607727561
15607735556
15607743857
15607751547
15607757773
15607766135
15607772849
15607778037
15607783286
15607787863
15607793479
15607798300
15607802451
15607807822
15607812766
15607818686
15607821372
15607829245
15607834738
15607841147
15607846274
15607852255
15607858359
15607864523
15607870322
15607875143
15607881857
15607886679
15607892782
15607898947
15607903830
15607909811
15607914999
15607920614
15607926413
15607931967
15607937704
15607943564
15607949240
15607954123
15607958822
15607964987
15607970175
15607975729
15607981649
15607988241
15607992270
15607999166
15608002523
15608008932
15608015829
15608022116
15608028585
15608034078
15608039083
15608043966
15608051107
15608056783
15608063009
15608069540
15608076315
15608082479
15608086996
15608092428
15608096761
15608099935
15608109090
15608114889
15608121114
15608127828
15608133810
15608139486
15608145406
15608152120
15608158102
15608164815
15608170064
15608175985
15608182577
15608188985
15608195272
15608201253
15608207357
15608212728
15608218709
15608224386
15608230733
15608236410
15608242452
15608248739
15608257100
15608264180
15608269796
15608274923
15608279378
15608286092
15608290364
15608298055
15608302205
15608310628
15608317281
15608322591
15608327474
15608335225
15608340108
15608343831
15608348897
15608354695
15608359822
15608363973
15608369161
15608373921
15608379109
15608383199
15608389790
15608396321
15608401204
15608408650
15608414021
15608420613
15608426534
15608431783
15608437886
15608443196
15608448750
15608453145
15608459126
15608464497
15608470357
15608474446
15608481892
15608486775
15608492818
15608497395
15608505330
15608510151
15608516499
15608522358
15608527852
15608535176
15608540242
15608544331
15608552266
15608555806
15608564290
15608568684
15608575825
15608581440
15608587666
15608592854
15608599690
15608607502
15608613606
15608618977
15608624836
15608631611
15608636738
15608642170
15608648884
15608655537
15608661091
15608667866
15608674336
15608679157
15608682942
15608690937
15608695149
15608704182
15608708637
15608718769
15608724751
15608731525
15608737751
15608743610
15608748066
15608756428
15608761921
15608767536
15608773579
15608780170
15608784077
15608790912
15608796650
15608804584
15608812580
15608818378
15608823261
15608831257
15608835773
15608842853
15608848774
15608856830
15608862262
15608870685
15608875568
15608881488
15608884906
15608892047
15608895588
15608903949
15608908161
15608914203
15608917438
15608924152
15608927997
15608933856
15608937213
15608946613
15608950702
15608957599
15608964313
15608969440
15608976459
15608981037
15608987506
15608995502
15608999591
15609006366
15609012103
15609017902
15609022907
15609029132
15609034442
15609040912
15609046222
15609052814
15609060199
15609064044
15609070270
15609076556
15609084186
15609087604
15609094989
15609098773
15609106830
15609110614
15609118243
15609121783
15609129352
15609132770
15609139117
15609142535
15609149615
15609153216
15609162127
15609166095
15609172259
15609178668
15609185443
15609191119
15609198321
15609203814
15609210528
15609215472
15609222247
15609230303
15609234271
15609241534
15609245074
15609252520
15609256243
15609262713
15609267718
15609275591
15609279925
15609287249
15609292254
15609297808
15609304522
15609311053
15609315875
15609321917
15609328936
15609335955
15609342730
15609348406
15609353411
15609359270
15609364641
15609370135
15609376543
15609383379
15609387774
15609394182
15609398760
15609407854
15609413225
15609420305
15609425310
15609432573
15609439470
15609446306
15609450884
15609455950
15609460833
15609463884
15609471209
15609477190
15609482927
15609488054
15609493059
15609500383
15609504534
15609509966
15609516252
15609521379
15609527483
15609533403
15609537432
15609543047
15609548479
15609553972
15609558916
15609565996
15609570757
15609577043
15609581072
15609586382
15609592180
15609596513
15609605119
15609611833
15609617998
15609624223
15609629045
15609635393
15609640703
15609644304
15609652483
15609659135
15609665971
15609672563
15609677751
15609681901
15609689836
15609694169
15609703142
15609707658
15609716020
15609719926
15609727556
15609731828
15609738725
15609744096
15609749589
15609756059
15609762346
15609766740
15609772660
15609776445
15609783525
15609787187
15609795793
15609802934
15609807695
15609813737
15609818315
15609824052
15609828996
15609835282
15609841874
15609846330
15609854691
15609859757
15609864762
15609870988
15609875626
15609880326
15609887345
15609892411
15609899979
15609903397
15609910539
15609914018
15609921098
15609927750
15609935380
15609941056
15609947404
15609953690
15609959977
15609963334
15609970353
15609976456
15609982011
15609987260
15609993668
15609999467
15610007523
15610013810
15610019547
15610027237
15610032425
15610041153
15610047074
15610052079
15610057877
15610063736
15610068192
15610073807
15610080094
15610085953
15610093460
15610100052
15610104508
15610111344
15610123062
15610136368
15610147782
15610158158
15610166214
15610173721
15610181229
15610188309
15610196915
15610201859
15610208572
15610214554
15610219864
15610224258
15610229263
15610234146
15610238663
15610243973
15610249466
15610255081
15610258316
15610264175
15610268265
15610274246
15610279678
15610285293
15610289688
15610295120
15610299759
15610304886
15610309952
15610314834
15610319229
15610325027
15610330215
15610335220
15610340408
15610345413
15610349807
15610354690
15610359512
15610366531
15610371963
15610377395
15610382095
15610385757
15610392105
15610396926
15610403457
15610409256
15610418289
15610425125
15610430862
15610438186
15610442398
15610448379
15610454849
15610460342
15610465957
15610471572
15610476699
15610482620
15610489639
15610497878
15610504409
15610510696
15610514785
15610521804
15610528518
15610533462
15610537063
15610545425
15610549026
15610557693
15610561111
15610567641
15610575271
15610580825
15610588698
15610595962
15610601821
15610609694
15610617080
15610622634
15610630874
15610634414
15610639663
15610646132
15610652724
15610656020
15610662978
15610670974
15610675063
15610680556
15610687392
15610693007
15610697036
15610702590
15610706252
15610711562
15610717299
15610723159
15610727919
15610733412
15610739577
15610745864
15610750014
15610755934
15610762038
15610766860
15610773757
15610779433
15610784132
15610789687
15610795119
15610801650
15610805739
15610811659
15610818129
15610822768
15610828322
15610832899
15610838881
15610844130
15610849501
15610854018
15610859816
15610865797
15610870192
15610875441
15610881483
15610885695
15610892225
15610895338
15610903151
15610906569
15610914686
15610919996
15610924513
15610929640
15610935865
15610940870
15610947767
15610953077
15610958998
15610964003
15610969130
15610976088
15610980848
15610985426
15610991468
15610999403
15611005079
15611011488
15611017408
15611021925
15611025343
15611033949
15611037367
15611044813
15611048658
15611056715
15611060804
15611067274
15611072340
15611078993
15611084486
15611089491
15611096876
15611102125
15611108411
15611112928
15611119337
15611124525
15611130384
15611136060
15611141187
15611147596
15611153333
15611161329
15611167798
15611175977
15611181714
15611189893
15611196607
15611203565
15611208021
15611212842
15611216810
15611223279
15611227735
15611234144
15611239087
15611246900
15611251050
15611256482
15611261853
15611267347
15611273206
15611274976
15611284070
15611291333
15611295484
15611300489
15611306348
15611312574
15611317029
15611320630
15611329663
15611336743
15611341626
15611347852
15611353589
15611357129
15611364148
15611370252
15611376965
15611382031
15611387952
15611394360
15611399243
15611404065
15611411389
15611416211
15611422375
15611427502
15611433606
15611439831
15611444775
15611451245
15611454785
15611462231
15611465832
15611473340
15611478772
15611484997
15611489880
15611496533
15611501660
15611507397
15611511792
15611518139
15611524182
15611531079
15611536999
15611541272
15611549267
15611553723
15611559643
15611565319
15611570996
15611576611
15611584240
15611587719
15611594738
15611600231
15611606274
15611610607
15611616650
15611624645
15611631176
15611636059
15611642163
15611647350
15611654797
15611659496
15611666332
15611672619
15611678539
15611684643
15611689587
15611695751
15611699474
15611706249
15611713085
15611719616
15611723461
15611729992
15611735058
15611741527
15611745190
15611754162
15611761181
15611768810
15611776134
15611781872
15611785839
15611796398
15611803722
15611810619
15611815929
15611821361
15611828685
15611833019
15611840587
15611846203
15611854015
15611859142
15611867076
15611871715
15611881847
15611885753
15611893749
15611899364
15611905895
15611911388
15611918285
15611924449
15611930370
15611935802
15611942760
15611947887
15611954479
15611959300
15611966136
15611972728
15611980052
15611984142
15611990367
15611994701
15612000804
15612006236
15612010997
15612015758
15612022716
15612027049
15612033275
15612037791
15612041392
15612049510
15612053111
15612059947
15612065135
15612072093
15612077647
15612083812
15612088817
15612094737
15612100108
15612105479
15612112681
15612117564
15612122081
15612128611
15612133372
15612139720
15612144664
15612148082
15612156016
15612162425
15612167308
15612172313
15612178416
15612183238
15612189158
15612196055
15612200389
15612209117
15612215403
15612219981
15612226390
15612231272
15612237986
15612242320
15612248728
15612253794
15612260203
15612264903
15612268504
15612277049
15612280772
15612287486
15612292368
15612297739
15612305552
15612311839
15612316721
15612323130
15612328074
15612333506
15612338328
15612344981
15612352915
15612359934
15612364939
15612373728
15612379160
15612385508
15612391855
15612398325
15612406138
15612412485
15612416880
15612423899
15612428537
15612435190
15612439585
15612444590
15612451975
15612460764
15612465219
15612471140
15612475901
15612482065
15612487863
15612492929
15612499155
15612504709
15612510996
15612516001
15612521738
15612525339
15612533640
15612537485
15612543833
15612550241
15612557688
15612562570
15612568857
15612573862
15612579172
15612583566
15612590585
15612595224
15612602731
15612607126
15612613046
15612618906
15612624643
15612629404
15612635751
15612640512
15612646249
15612653146
15612658090
15612663827
15612670480
15612675668
15612680673
15612687082
15612693979
15612699899
15612704843
15612711068
15612715463
15612721628
15612726022
15612732675
15612740793
15612746408
15612752877
15612759225
15612764108
15612769967
15612774667
15612779916
15612786386
15612792184
15612800485
15612805490
15612811044
15612816720
15612822579
15612826974
15612833383
15612840341
15612847054
15612851571
15612857919
15612863534
15612868783
15612875253
15612880868
15612887704
15612894723
15612899667
15612903207
15612911385
15612914864
15612922189
15612927071
15612933236
15612938668
15612945321
15612951729
15612956185
15612962594
15612968697
15612973641
15612980660
15612986703
15612994637
15613000252
15613006112
15613012948
15613019722
15613026314
15613031441
15613036507
15613040108
15613048653
15613052376
15613060311
15613063973
15613071724
15613076607
15613083504
15613090523
15613096199
15613103035
15613108162
15613113228
15613118782
15613124703
15613128975
15613136849
15613143257
15613149666
15613154427
15613160408
15613164009
15613171578
15613177742
15613182442
15613188667
15613195015
15613198677
15613205208
15613210335
15613216804
15613221260
15613227669
15613235725
15613240364
15613244881
15613252083
15613256965
15613262520
15613268440
15613272957
15613279671
15613283211
15613292244
15613296394
15613301948
15613309578
15613314522
15613320015
15613326851
15613332527
15613338813
15613343879
15613349434
15613353950
15613360481
15613365669
15613371894
15613376594
15613382209
15613388862
15613390754
15613398994
15613402656
15613409675
15613414436
15613421272
15613427619
15613434089
15613439704
15613444282
15613450935
15613455024
15613461433
15613466316
15613474128
15613479499
15613486152
15613491157
15613497688
15613502753
15613509406
15613513435
15613521735
15613528266
15613533332
15613538459
15613546149
15613551032
15613557563
15613562995
15613570197
15613575385
15613579352
15613588935
15613595405
15613604255
15613614631
15613620307
15613629218
15613635444
15613641669
15613648871
15613654731
15613659125
15613664679
15613670783
15613675727
15613682685
15613689826
15613696967
15613703131
15613707465
15613713568
15613718207
15613724310
15613729682
15613735541
15613743231
15613747077
15613754218
15613759161
15613765448
15613771002
15613776190
15613782294
15613788580
15613794928
15613799384
15613805731
15613807623
15613816351
15613822211
15613827399
15613831061
15613840765
15613844183
15613851263
15613856146
15613863104
15613866949
15613876044
15613882635
15613887579
15613892584
15613899542
15613904425
15613909002
15613915289
15613921148
15613925970
15613932684
15613939276
15613943731
15613949591
15613955511
15613961615
15613963873
15613973028
15613979376
15613986151
15613991644
15613997625
15614001165
15614007635
15614012762
15614018804
15614025030
15614032171
15614037420
15614043890
15614048834
15614054205
15614059087
15614065984
15614071539
15614077215
15614083563
15614088628
15614094488
15614100713
15614105596
15614109197
15614117376
15614123113
15614128789
15614134222
15614139287
15614143804
15614150640
15614157049
15614162725
15614171697
15614176702
15614182439
15614187017
15614192937
15614199346
15614204778
15614208745
15614220220
15614226873
15614232061
15614239934
15614246892
15614254522
15614258550
15614267522
15614271733
15614278936
15614283879
15614289373
15614294072
15614302983
15614308538
15614315373
15614322453
15614328496
15614333623
15614339848
15614344426
15614349675
15614356572
15614363957
15614369756
15614373235
15614381718
15614385869
15614392033
15614395451
15614404301
15614407658
15614415837
15614419194
15614427129
15614430546
15614437688
15614442753
15614448796
15614453740
15614461125
15614467900
15614475102
15614480473
15614485783
15614490361
15614497136
15614506901
15614514897
15614525639
15614535405
15614542302
15614549076
15614554448
15614560856
15614566960
15614575932
15614582035
15614587651
15614592839
15614599919
15614605351
15614611881
15614616764
15614624149
15614629215
15614635502
15614640446
15614645390
15614652897
15614658329
15614663761
15614670902
15614679813
15614686405
15614691349
15614698917
15614704838
15614708988
15614717106
15614722965
15614730045
15614737614
15614743717
15614748234
15614755314
15614760380
15614766239
15614770572
15614776188
15614783207
15614788944
15614795658
15614799259
15614806888
15614810489
15614816593
15614821842
15614830143
15614836979
15614842899
15614847416
15614857120
15614860782
15614867984
15614874393
15614881595
15614887943
15614893863
15614897159
15614904422
15614907779
15614915164
15614919620
15614924564
15614929935
15614937991
15614942691
15614947757
15614954105
15614958194
15614964420
15614969608
15614974368
15614980960
15614987247
15614991336
15614996829
15615001468
15615007083
15615013003
15615020877
15615027347
15615032230
15615038272
15615042728
15615049136
15615053836
15615058902
15615065188
15615070682
15615078555
15615082095
15615088382
15615093753
15615100100
15615104434
15615110476
15615118411
15615124026
15615128421
15615134707
15615140689
15615142703
15615151553
15615157107
15615163333
15615168460
15615174929
15615179690
15615190554
15615195498
15615205996
15615212161
15615219607
15615223879
15615232485
15615236636
15615244204
15615249087
15615255373
15615260317
15615265871
15615274416
15615279726
15615286684
15615292117
15615296694
15615302554
15615307436
15615311587
15615319643
15615325198
15615331850
15615336855
15615342715
15615346682
15615353335
15615358217
15615364504
15615370974
15615376894
15615382082
15615389284
15615394167
15615399721
15615404482
15615411562
15615417482
15615425112
15615429506
15615435671
15615440126
15615443789
15615451845
15615458864
15615464968
15615472048
15615479311
15615483034
15615490236
15615496096
15615503420
15615509523
15615515871
15615521242
15615528688
15615533693
15615540956
15615545839
15615553407
15615559450
15615564638
15615572694
15615578493
15615583559
15615589662
15615594911
15615601991
15615606569
15615611757
15615619264
15615625307
15615630250
15615636415
15615640993
15615647829
15615652345
15615657411
15615663270
15615669374
15615676942
15615682496
15615686769
15615693605
15615698793
15615703309
15615710267
15615716554
15615722047
15615728029
15615733705
15615738588
15615744752
15615750550
15615754151
15615761598
15615769288
15615774232
15615779664
15615784852
15615791383
15615796327
15615801148
15615807984
15615813905
15615819703
15615826051
15615830872
15615836793
15615842713
15615847413
15615854066
15615858888
15615865296
15615871705
15615875672
15615882996
15615888245
15615892640
15615899598
15615905518
15615911988
15615917725
