15754520703
15754529187
15754537732
15754547253
15754556103
15754563916
15754572827
15754580517
15754589673
15754598462
15754606701
15754613598
15754623425
15754629711
15754639538
15754647717
15754653942
15754663220
15754671337
15754679333
15754687573
15754693249
15754701061
15754706921
15754717297
15754726391
15754732433
15754741894
15754747692
15754756908
15754762524
15754773937
15754781628
15754789989
15754795971
15754806591
15754813366
15754821667
15754832104
15754840526
15754848156
15754857311
15754866344
15754874828
15754882763
15754893810
15754900890
15754911876
15754918834
15754925731
15754932506
15754939403
15754947643
15754953502
15754960887
15754966442
15754973155
15754977306
15754984142
15754992748
15754997508
15755004344
15755011974
15755018932
15755024730
15755031322
15755037853
15755042674
15755049754
15755055064
15755062633
15755068553
15755075145
15755082896
15755089366
15755095348
15755102733
15755107616
15755114329
15755122142
15755129771
15755135692
15755141856
15755149608
15755155894
15755163279
15755169261
15755174022
15755179942
15755187083
15755194468
15755199656
15755205516
15755211558
15755220286
15755226023
15755232981
15755240061
15755245249
15755252146
15755258128
15755263682
15755270091
15755276866
15755283518
15755289866
15755295786
15755303599
15755308054
15755316172
15755323313
15755330393
15755337656
15755343028
15755350291
15755356638
15755363657
15755369273
15755376536
15755381968
15755388804
15755395335
15755400584
15755410349
15755419810
15755426829
15755433054
15755444529
15755451365
15755459849
15755466257
15755474375
15755481882
15755487986
15755499277
15755506357
15755515818
15755522226
15755529978
15755539072
15755544687
15755554819
15755562387
15755570200
15755576181
15755585886
15755592294
15755600412
15755605661
15755614145
15755621957
15755627756
15755636057
15755642709
15755652109
15755658762
15755666086
15755671396
15755679330
15755685556
15755693491
15755699411
15755709543
15755713693
15755722299
15755728586
15755736825
15755744027
15755751169
15755757638
15755769174
15755775827
15755782663
15755791879
15755800729
15755808358
15755819284
15755828927
15755836618
15755846383
15755858224
15755865853
15755874215
15755882577
15755893380
15755901132
15755908090
15755918038
15755925973
15755934274
15755942025
15755952462
15755961068
15755969002
15755978097
15755986031
15755994332
15756001168
15756008980
15756017647
15756024727
15756031197
15756041024
15756047738
15756056527
15756062996
15756070076
15756076729
15756086617
15756094735
15756101998
15756109200
15756116463
15756120919
15756131478
15756139351
15756145150
15756150521
15756157662
15756163704
15756169808
15756175179
15756180184
15756188179
15756195137
15756202339
15756207527
15756213631
15756218636
15756225472
15756230965
15756238350
15756244148
15756250923
15756254463
15756259590
15756264595
15756270149
15756273994
15756278877
15756284065
15756287849
15756293220
15756298836
15756303413
15756309334
15756314155
15756321968
15756327278
15756333992
15756338569
15756344917
15756350776
15756354194
15756360908
15756367683
15756372078
15756377937
15756382332
15756387153
15756394355
15756398811
15756403755
15756406684
15756414802
15756418830
15756426094
15756431037
15756436470
15756442878
15756448432
15756456001
15756461189
15756464546
15756473701
15756479072
15756485359
15756490974
15756496833
15756502998
15756508857
15756514594
15756520881
15756525459
15756530647
15756538520
15756543220
15756548530
15756555549
15756562690
15756569648
15756575568
15756578864
15756586494
15756591987
15756598945
15756603828
15756610847
15756617805
15756621955
15756629218
15756633979
15756640571
15756645026
15756652289
15756657599
15756663154
15756669928
15756676337
15756681891
15756687201
15756692694
15756698981
15756704596
15756710395
15756716864
15756720282
15756726813
15756731635
15756738715
15756744147
15756750983
15756755072
15756762763
15756769293
15756775214
15756778937
15756788153
15756793646
15756800482
15756810065
15756815497
15756824103
15756829962
15756836859
15756843207
15756849188
15756853949
15756861212
15756867682
15756874091
15756879034
15756884711
15756890265
15756895026
15756899664
15756908331
15756914068
15756919440
15756925726
15756930914
15756937323
15756942267
15756948492
15756953436
15756957342
15756965582
15756969854
15756976873
15756981268
15756988592
15756992865
15757000494
15757007208
15757013189
15757019720
15757025274
15757028692
15757036138
15757042547
15757050238
15757055364
15757062078
15757067083
15757073980
15757078619
15757083746
15757092779
15757099554
15757106756
15757113043
15757119390
15757125066
15757128790
15757137090
15757142889
15757149664
15757155157
15757162969
15757169012
15757174444
15757179449
15757184331
15757192754
15757199285
15757202886
15757208929
15757215764
15757220220
15757226507
15757232427
15757238347
15757245366
15757250127
15757255254
15757261541
15757266973
15757273504
15757278936
15757286016
15757291753
15757297612
15757302739
15757307805
15757313726
15757319463
15757326116
15757335759
15757343877
15757351201
15757356084
15757365544
15757372075
15757382146
15757387517
15757399236
15757407170
15757416936
15757421635
15757433354
15757438359
15757447942
15757454716
15757464604
15757471867
15757480778
15757489262
15757495671
15757505009
15757511845
15757518559
15757528081
15757535771
15757544072
15757551457
15757558659
15757566960
15757573491
15757582219
15757588871
15757597783
15757606938
15757614506
15757620793
15757629460
15757636723
15757642521
15757653385
15757662968
15757670414
15757678105
15757685307
15757692997
15757701420
15757708683
15757716007
15757723026
15757731510
15757740116
15757746098
15757754887
15757763431
15757769840
15757777653
15757784855
15757789860
15757802372
15757808414
15757816654
15757823185
15757832584
15757838932
15757848636
15757855594
15757865909
15757875431
15757882206
15757890873
15757898441
15757907047
15757913761
15757922245
15757932987
15757939456
15757947696
15757956058
15757962833
15757971012
15757976322
15757984989
15757992252
15758001468
15758008365
15758015201
15758019290
15758030215
15758036014
15758045963
15758052310
15758063480
15758069949
15758078494
15758084537
15758093387
15758101138
15758108462
15758117190
15758126040
15758132693
15758140872
15758149356
15758155520
15758163272
15758171267
15758177188
15758185855
15758195987
15758202639
15758211917
15758219729
15758227114
15758235598
15758243045
15758247195
15758260134
15758264956
15758276675
15758283511
15758290713
15758296755
15758305911
15758313784
15758323000
15758329348
15758337893
15758344607
15758354067
15758360049
15758366091
15758374758
15758385683
15758391970
15758398867
15758408266
15758415102
15758422121
15758430239
15758436587
15758445376
15758456545
15758463625
15758470278
15758477480
15758486391
15758491640
15758500978
15758509035
15758518923
15758524172
15758534670
15758539614
15758548525
15758556337
15758563295
15758569765
15758579714
15758586611
15758596681
15758602541
15758610597
15758616945
15758626466
15758632448
15758641420
15758650392
15758658327
15758668214
15758675722
15758683961
15758691408
15758699220
15758708620
15758714906
15758721803
15758730653
15758739442
15758744447
15758749757
15758756776
15758763856
15758770570
15758775514
15758780030
15758786317
15758791505
15758797975
15758804383
15758812928
15758815553
15758824159
15758826783
15758835877
15758838868
15758846376
15758851014
15758859986
15758865724
15758871583
15758876039
15758882386
15758888246
15758894044
15758900025
15758905702
15758911988
15758917725
15758922913
15758927552
15758934205
15758938477
15758945252
15758953309
15758961365
15758966004
15758974305
15758979859
15758986695
15758993165
15758999329
15759003907
15759013428
15759020020
15759025330
15759029358
15759034241
15759039917
15759044434
15759051819
15759056153
15759062989
15759067688
15759073792
15759079102
15759083924
15759089356
15759096131
15759101746
15759106507
15759111817
15759117493
15759122071
15759126831
15759133911
15759142700
15759147400
15759153870
15759158325
15759164551
15759170593
15759176270
15759180725
15759187256
15759193237
15759199707
15759205261
15759210877
15759216003
15759221069
15759227783
15759232361
15759240967
15759247620
15759252441
15759257507
15759263061
15759270325
15759275452
15759280029
15759287598
15759292419
15759298950
15759304748
15759313904
15759330810
15759344299
15759355102
15759363403
15759371887
15759380310
15759388733
15759397888
15759405212
15759411254
15759418151
15759423522
15759429809
15759435058
15759441223
15759446472
15759453552
15759460082
15759465759
15759471191
15759477050
15759482421
15759486633
15759492065
15759497253
15759502868
15759508849
15759513732
15759519469
15759526366
15759531371
15759536437
15759542785
15759546203
15759554565
15759558959
15759565673
15759570190
15759577453
15759583556
15759590514
15759596618
15759604857
15759610412
15759616515
15759623900
15759628966
15759635192
15759640746
15759646300
15759652404
15759656981
15759662963
15759667418
15759673400
15759677428
15759681578
15759687255
15759693969
15759698302
15759703917
15759709838
15759714965
15759721434
15759726439
15759732237
15759735900
15759742064
15759747985
15759752013
15759757628
15759762877
15759769164
15759776915
15759782836
15759788817
15759794798
15759801268
15759804320
15759810667
15759815184
15759822142
15759827696
15759833678
15759838438
15759846861
15759852171
15759857237
15759861754
15759869993
15759874998
15759882078
15759888487
15759897398
15759902281
15759908385
15759912779
15759919432
15759926024
15759932860
15759937986
15759944029
15759951048
15759956480
15759963743
15759972166
15759978270
15759987364
15759993345
15760000181
15760009031
15760015806
15760023435
15760031736
15760040769
15760049558
15760056516
15760065794
15760073240
15760081114
15760089048
15760093321
15760105711
15760110227
15760121580
15760127805
15760136350
15760142088
15760150816
15760158750
15760165281
15760173154
15760181089
15760189023
15760194272
15760203550
15760211362
15760219114
15760225217
15760233091
15760242368
15760248594
15760257627
15760266050
15760273984
15760280759
15760288205
15760297422
15760303708
15760313230
15760321164
15760327207
15760334226
15760343137
15760347409
15760357968
15760364865
15760375913
15760383481
15760390988
15760397519
15760406918
15760413510
15760423276
15760429623
15760439694
15760446347
15760455258
15760464047
15760470517
15760479367
15760485898
15760495602
15760501095
15760513241
15760519772
15760529965
15760537716
15760545224
15760553036
15760561215
15760567746
15760576352
15760585141
15760593136
15760602230
15760609127
15760615658
15760624569
15760633724
15760639584
15760649471
15760657711
15760664974
15760672238
15760679562
15760684261
15760694393
15760700985
15760709957
15760719234
15760728329
15760737301
15760744991
15760751461
15760760555
15760767513
15760778499
15760785274
15760794735
15760801204
15760810787
15760818905
15760823238
15760835811
15760840145
15760852352
15760859859
15760866756
15760872860
15760882442
15760889034
15760897945
15760903987
15760913753
15760920223
15760929134
15760935787
15760944637
15760950557
15760958919
15760965144
15760968990
15760982234
15760989620
15760996883
15761004207
15761012874
15761017024
15761027766
15761032222
15761043574
15761051021
15761058955
15761064998
15761073054
15761082088
15761088008
15761098384
15761107844
15761116816
15761124446
15761131709
15761141169
15761148555
15761154170
15761164119
15761173152
15761180598
15761188594
15761195735
15761203242
15761210932
15761217646
15761225825
15761232173
15761241816
15761250910
15761258723
15761265070
15761272822
15761280695
15761286860
15761296870
15761302241
15761311884
15761320612
15761327570
15761336359
15761343867
15761348444
15761358454
15761365656
15761373774
15761382258
15761388483
15761393976
15761398737
15761404658
15761409907
15761416193
15761422602
15761428217
15761434809
15761440973
15761446039
15761451960
15761457331
15761463495
15761469110
15761473932
15761481134
15761486444
15761493280
15761497736
15761504694
15761511957
15761517206
15761521906
15761529108
15761533319
15761540338
15761545709
15761551142
15761556757
15761564569
15761569269
15761573786
15761579767
15761585870
15761590692
15761596918
15761604791
15761609857
15761617059
15761622125
15761628839
15761633905
15761639093
15761645319
15761650995
15761655389
15761661798
15761666437
15761671869
15761677423
15761683771
15761688836
15761695489
15761701410
15761706415
15761713556
15761718194
15761723749
15761729913
15761734796
15761740167
15761748895
15761756097
15761761895
15761765680
15761772210
15761778619
15761785089
15761792230
15761797784
15761803399
15761809564
15761814263
15761820184
15761823480
15761830071
15761833795
15761841485
15761847100
15761851983
15761857171
15761863152
15761869073
15761875665
15761878472
15761887444
15761892266
15761899102
15761904473
15761911309
15761914666
15761921014
15761925774
15761933465
15761939141
15761945000
15761950188
15761956780
15761961358
15761968438
15761974175
15761981560
15761986931
15761991814
15761998894
15762005364
15762010003
15762015679
15762022088
15762029229
15762035088
15762040459
15762048027
15762052605
15762059136
15762064385
15762070732
15762077507
15762083428
15762089043
15762094597
15762100823
15762107231
15762112114
15762118706
15762124199
15762131584
15762137749
15762142510
15762149040
15762153618
15762161858
15762164543
15762174187
15762182427
15762188225
15762193352
15762200798
15762204948
15762212151
15762215813
15762223076
15762227837
15762234306
15762239311
15762247612
15762252739
15762258354
15762264580
15762268669
15762276787
15762281608
15762287651
15762292534
15762299553
15762303398
15762311088
15762317314
15762322929
15762328483
15762334953
15762340202
15762347221
15762355888
15762364128
15762365898
15762375358
15762381950
15762391532
15762398429
15762405509
15762409233
15762418571
15762422050
15762430839
15762438651
15762443412
15762448173
15762454215
15762458488
15762465629
15762471916
15762477165
15762480338
15762487724
15762492057
15762497733
15762502677
15762511405
15762516471
15762521781
15762527396
15762532584
15762537345
15762543510
15762547721
15762553886
15762559257
15762564506
15762572196
15762576774
15762582328
15762589469
15762597526
15762605338
15762612418
15762617179
15762627555
15762634208
15762644706
15762652762
15762663260
15762669852
15762679374
15762687125
15762701956
15762709403
15762719107
15762725699
15762733451
15762741202
15762748831
15762756705
15762763846
15762769461
15762780142
15762786002
15762793448
15762800650
15762806693
15762814505
15762823172
15762830923
15762838919
15762845206
15762853873
15762859366
15762866934
15762874258
15762880057
15762888113
15762898001
15762904104
15762910513
15762920035
15762927908
15762935293
15762943838
15762953726
15762961111
15762970816
15762979238
15762985769
15762993154
15763002066
15763009085
15763015615
15763022512
15763031301
15763039297
15763046255
15763052908
15763061331
15763067373
15763075674
15763083120
15763091909
15763101675
15763109182
15763114492
15763124685
15763129262
15763139150
15763146169
15763155385
15763162038
15763171499
15763178152
15763186330
15763195608
15763202504
15763208852
15763218862
15763226552
15763235158
15763241567
15763249990
15763258290
15763262807
15763272206
15763278615
15763288930
15763296010
15763303701
15763311940
15763319570
15763326528
15763335805
15763343495
15763353383
15763360158
15763368276
15763374623
15763383473
15763391713
15763399037
15763406117
15763412892
15763422719
15763429494
15763438832
15763445363
15763454762
15763462330
15763470204
15763476735
15763485585
15763492970
15763498890
15763509022
15763515858
15763523182
15763530140
15763537770
15763544911
15763555226
15763561695
15763569447
15763578663
15763586109
15763592518
15763599293
15763609669
15763617237
15763625660
15763631764
15763639942
15763648731
15763656056
15763660450
15763669056
15763675465
15763684986
15763692432
15763700367
15763711536
15763722401
15763728992
15763737842
15763744312
15763752186
15763760425
15763767811
15763775379
15763781605
15763791187
15763797352
15763805591
15763816272
15763822803
15763831104
15763838245
15763846668
15763854602
15763861866
15763869251
15763877246
15763884632
15763892017
15763901111
15763907520
15763914600
15763924121
15763931812
15763940296
15763949939
15763957263
15763967822
15763974780
15763983997
15763990955
15763999133
15764005725
15764015124
15764020801
15764027698
15764034045
15764040820
15764046374
15764051990
15764056384
15764065051
15764071948
15764076831
15764081653
15764087939
15764093738
15764099658
15764104907
15764109607
15764115710
15764120471
15764126635
15764132495
15764138049
15764143603
15764150317
15764155688
15764160510
15764166735
15764171374
15764178820
15764184741
15764189929
15764196459
15764202319
15764208483
15764213183
15764219409
15764225085
15764230700
15764237109
15764243701
15764248400
15764254992
15764260302
15764267748
15764272631
15764280199
15764284533
15764291003
15764298266
15764303454
15764308703
15764315600
15764318713
15764327563
15764332568
15764338671
15764342821
15764349596
15764354113
15764358935
15764365282
15764371081
15764376879
15764382311
15764387499
15764393114
15764398302
15764404039
15764410021
15764414904
15764423021
15764428515
15764435045
15764439928
15764444750
15764447680
15764456408
15764460436
15764468859
15764475267
15764481432
15764485704
15764492723
15764497728
15764503954
15764513231
15764518114
15764521288
15764530016
15764537096
15764542711
15764547899
15764557481
15764561083
15764569261
15764576341
15764581285
15764585436
15764591905
15764598375
15764605638
15764610216
15764616869
15764621446
15764628648
15764633043
15764639268
15764646043
15764653673
15764659959
15764664476
15764669847
15764675828
15764681016
15764685045
15764690538
15764697374
15764703294
15764708848
15764713060
15764718919
15764724534
15764730394
15764736314
15764742357
15764747239
15764752793
15764758165
15764763230
15764769029
15764774339
15764781236
15764788804
15764792955
15764798936
15764803453
15764809312
15764815843
15764820176
15764826768
15764829759
15764839585
15764843675
15764851487
15764857469
15764862534
15764867051
15764873338
15764878465
15764888169
15764891587
15764900010
15764905686
15764911423
15764916611
15764923203
15764929124
15764936509
15764941270
15764947800
15764952561
15764959336
15764963975
15764969773
15764975632
15764980698
15764988877
15764993943
15764999741
15765005906
15765011094
15765017746
15765022934
15765026658
15765036118
15765039963
15765047348
15765052719
15765058457
15765063584
15765069687
15765074204
15765082199
15765087387
15765093369
15765097824
15765103928
15765110947
15765116501
15765122666
15765131333
15765136643
15765144150
15765148728
15765154526
15765161362
15765166916
15765173142
15765181686
15765187912
15765197372
15765203354
15765211777
15765217392
15765225693
15765231186
15765240646
15765246445
15765253464
15765260666
15765267563
15765275497
15765283676
15765289108
15765298019
15765303940
15765310165
15765319015
15765326950
15765332504
15765340866
15765346359
15765353439
15765361862
15765369796
15765377121
15765381942
15765390243
15765397933
15765405807
15765411788
15765420272
15765426681
15765434921
15765439254
15765448776
15765456466
15765462936
15765466659
15765478133
15765485641
15765492965
15765498397
15765506515
15765513351
15765522079
15765530013
15765538558
15765543502
15765551742
15765558517
15765567061
15765572860
15765581588
15765588118
15765596419
15765604537
15765611922
15765617232
15765626204
15765634078
15765640792
15765649153
15765656844
15765664901
15765671859
15765677962
15765686812
15765692977
15765703414
15765709456
15765718672
15765724959
15765734664
15765740828
15765749922
15765755843
15765764632
15765772749
15765780806
15765787520
15765793745
15765802718
15765811140
15765817793
15765824690
15765833601
15765841536
15765851240
15765858137
15765867354
15765872603
15765883284
15765890486
15765897810
15765904158
15765914778
15765921614
15765932295
15765938704
15765946028
15765954267
15765961531
15765969526
15765980329
15765989363
15765995588
15766005293
15766014692
15766021284
15766030317
15766039350
15766047224
15766055952
15766062666
15766071577
15766078779
15766087812
15766094892
15766104658
15766112165
15766119611
15766128400
15766136030
15766143171
15766151227
15766155744
15766166425
15766170820
15766182966
15766187848
15766199079
15766203840
15766215314
15766220014
15766230024
15766236860
15766247235
15766254499
15766264997
15766273053
15766280561
15766287641
15766296735
15766303815
15766314618
15766321698
15766332684
15766340985
15766348493
15766356427
15766367108
15766375531
15766382916
15766391766
15766398480
15766406781
15766415387
15766421735
15766431073
15766440594
15766449200
15766456647
15766465924
15766475812
15766482342
15766491559
15766498333
15766507733
15766514935
15766525067
15766529950
15766540753
15766549054
15766557293
15766564373
15766569805
15766577130
15766582257
15766589947
15766596234
15766601971
15766608929
15766615643
15766622051
15766628094
15766634380
15766638592
15766648480
15766652142
15766662701
15766666851
15766675335
15766681622
15766690105
15766694683
15766702496
15766709454
15766715496
15766722454
15766727032
15766730572
15766737163
15766742779
15766748882
15766751568
15766762005
15766765117
15766771343
15766777324
15766782512
15766788372
15766793560
15766798076
15766804546
15766809429
15766816509
15766821453
15766827861
15766832256
15766837505
15766843120
15766849041
15766854412
15766858867
15766865764
15766870098
15766876567
15766882060
15766888408
15766891521
15766900310
15766903362
15766911601
15766916850
15766924846
15766929790
15766936076
15766941387
15766947185
15766955241
15766963054
15766967509
15766973430
15766980693
15766986308
15766991496
15767001506
15767006755
15767011699
15767017863
15767023112
15767030376
15767034465
15767041179
15767045817
15767052836
15767057109
15767065898
15767070048
15767077739
15767081035
15767087504
15767094951
15767100139
15767103434
15767111979
15767117778
15767125041
15767131450
15767137065
15767142680
15767149394
15767153971
15767160685
15767166056
15767170390
15767177287
15767182902
15767188700
15767193827
15767201823
15767204936
15767212565
15767218058
15767225138
15767229838
15767237406
15767243510
15767250041
15767256754
15767262492
15767268900
15767275187
15767280680
15767287394
15767292216
15767299174
15767305888
15767313456
15767316813
15767324991
15767329264
15767335551
15767340555
15767347513
15767354899
15767363138
15767369303
15767377115
15767382059
15767387491
15767392618
15767397806
15767402994
15767408426
15767413614
15767419291
15767425577
15767431437
15767436930
15767441080
15767447184
15767452249
15767457560
15767462442
15767467081
15767472879
15767477457
15767480570
15767486734
15767489115
15767496439
15767501688
15767507303
15767513346
15767517862
15767521707
15767526224
15767529703
15767534708
15767539285
15767543802
15767548196
15767552774
15767557718
15767562479
15767566751
15767571451
15767576212
15767580484
15767586099
15767591714
15767596170
15767601663
15767607034
15767611429
15767615884
15767622354
15767629312
15767633645
15767638284
15767644510
15767649698
15767655313
15767660074
15767665628
15767670755
15767676553
15767682596
15767687661
15767694680
15767699075
15767704812
15767709329
15767718301
15767726541
15767734292
15767740213
15767746072
15767755166
15767762796
15767770791
15767779214
15767786233
15767790994
15767802407
15767809609
15767816689
15767823953
15767831887
15767840432
15767848306
15767855569
15767862283
15767872964
15767879617
15767887795
15767896035
15767903664
15767913735
15767921426
15767929970
15767937661
15767944619
15767951516
15767957924
15767967141
15767973366
15767980813
15767988625
15767994973
15768002724
15768011025
15768017617
15768024636
15768031472
15768038796
15768046303
15768053139
15768059792
15768067055
15768074318
15768082863
15768090737
15768094887
15768104469
15768111366
15768121193
15768127480
15768135170
15768144447
15768152199
15768158485
15768167580
15768175087
15768181129
15768190956
15768197121
15768205116
15768209450
15768220497
15768227089
15768238502
15768245033
15768253761
15768260719
15768268654
15768277015
15768283424
15768291786
15768300209
15768309364
15768315529
15768325782
15768333107
15768340370
15768347389
15768355140
15768364479
15768371986
15768379981
15768387855
15768392250
15768402320
15768408729
15768418189
15768425208
15768436195
15768443458
15768450965
15768459327
15768467445
15768474891
15768482642
15768488929
15768497901
15768505225
15768511268
15768521033
15768525977
15768534827
15768544288
15768551673
15768561011
15768569373
15768574195
15768583289
15768591285
15768600074
15768607276
15768614051
15768622046
15768630225
15768639319
15768647864
15768654883
15768664466
15768671546
15768679053
15768686682
15768696692
15768705420
15768711035
15768720313
15768724707
15768735999
15768742224
15768751502
15768758826
15768769141
15768775793
15768784949
15768791602
15768800085
15768808691
15768814856
15768822119
15768829809
15768837866
15768846411
15768853613
15768862158
15768870459
15768874914
15768884436
15768890905
15768898108
15768906591
15768914526
15768922827
15768929480
15768936682
15768945227
15768952551
15768960607
15768968603
15768973181
15768983679
15768989843
15768998205
15769007421
15769013769
15769019994
15769029882
15769037023
15769046545
15769052892
15769060522
15769067724
15769075903
15769084020
15769092931
15769100683
15769105138
15769114233
15769121252
15769129980
15769135351
15769141454
15769146093
15769154088
15769159765
15769165441
15769168493
15769176854
15769180089
15769189794
15769192357
15769200231
15769203344
15769210912
15769215856
15769220922
15769226598
15769231725
15769237828
15769242894
15769248082
15769253759
15769259191
15769264867
15769268346
15769280431
15769286412
15769292882
15769298924
15769304234
15769307530
15769315465
15769318700
15769327001
15769330296
15769342320
15769347874
15769356175
15769360753
15769368260
15769373753
15769382909
15769388341
15769396519
15769402867
15769406407
15769413975
15769420567
15769427281
15769433323
15769437413
15769444432
15769449864
15769455357
15769460789
15769465977
15769471776
15769476902
15769482762
15769489109
15769493382
15769499058
15769505223
15769509983
15769514256
15769520481
15769526890
15769534703
15769539402
15769545018
15769550999
15769555638
15769561375
15769567234
15769573582
15769578160
15769585789
15769590916
15769599278
15769605747
15769610569
15769613804
15769621494
15769626377
15769636082
15769639317
15769646153
15769651218
15769658482
15769664890
15769670200
15769675816
15769681004
15769688694
15769695164
15769700413
15769704136
15769711521
15769715855
15769722446
15769727268
15769736728
15769738315
15769747410
15769752048
15769759922
15769763523
15769770725
15769776890
15769781772
15769788791
15769794712
15769800388
15769806797
15769811924
15769817844
15769822727
15769829441
15769836277
15769841159
15769847507
15769853549
15769860507
15769864231
15769872348
15769876010
15769883823
15769889377
15769899204
15769908664
15769915927
15769922397
15769928623
15769937351
15769943698
15769948703
15769958102
15769962619
15769970370
15769975925
15769982761
15769989169
15769996005
15770002170
15770009189
15770013156
15770020663
15770026767
15770036105
15770042087
15770051303
15770057712
15770063083
15770068087
15770072360
15770077243
15770081759
15770088412
15770092379
15770098117
15770101962
15770108676
15770111117
15770118869
15770124301
15770129489
15770134005
15770139132
15770144015
15770149569
15770153536
15770159518
15770162142
15770172396
15770178622
15770182833
15770187533
15770193392
15770198641
15770203646
15770209506
15770216769
15770222201
15770228732
15770233736
15770238558
15770242770
15770248568
15770252840
15770261813
15770267733
15770273470
15770278109
15770285067
15770289645
15770295748
15770300326
15770308749
15770313570
15770319247
15770325777
15770332857
15770338900
15770345003
15770354769
15770361422
15770370638
15770379488
15770385408
15770393526
15770400850
15770404757
15770416109
15770422884
15770432527
15770439119
15770448213
15770454317
15770462190
15770470674
15770478426
15770484407
15770493257
15770501619
15770508394
15770516634
15770522737
15770531770
15770538118
15770547090
15770554048
15770564973
15770571382
15770580659
15770587373
15770594270
15770604158
15770611360
15770620210
15770629915
15770636690
15770643770
15770651948
15770660554
15770664766
15770674959
15770687959
15770696626
15770704072
15770712251
15770719392
15770729158
15770735932
15770744844
15770752412
15770762116
15770768586
15770776704
15770783296
15770791291
15770798188
15770806672
15770814362
15770822236
15770829743
15770837006
15770844941
15770851960
15770862824
15770867402
15770877534
15770884858
15770894929
15770901826
15770909394
15770917756
15770925263
15770934357
15770941681
15770948090
15770952363
15770964448
15770972321
15770980256
15770988129
15770995575
15771001801
15771011994
15771019379
15771026825
15771035248
15771041169
15771050873
15771059235
15771065705
15771071320
15771081085
15771086273
15771098969
15771105682
15771113373
15771121368
15771129486
15771138214
15771145599
15771150055
15771160797
15771168060
15771177154
15771183685
15771192840
15771200043
15771207184
15771214569
15771223358
15771230560
15771239471
15771247040
15771255340
15771263092
15771267242
15771277252
15771283600
15771293182
15771299652
15771307098
15771316131
15771324310
15771330841
15771337860
15771347747
15771355804
15771365936
15771373870
15771380584
15771385772
15771396209
15771401458
15771412017
15771420806
15771428497
15771435882
15771443267
15771447601
15771457427
15771464507
15771473174
15771481353
15771488616
15771497466
15771506743
15771514434
15771520782
15771530730
15771536406
15771546355
15771553435
15771563933
15771569915
15771577300
15771584868
15771594512
15771600982
15771609099
15771615691
15771626189
15771632476
15771640105
15771649138
15771656462
15771662932
15771671477
15771678801
15771687041
15771696623
15771702239
15771710051
15771716704
15771726103
15771732634
15771742339
15771749541
15771757964
15771764494
15771770781
15771775603
15771781645
15771786406
15771792937
15771801970
15771807280
15771811186
15771818449
15771822355
15771830168
15771834929
15771841948
15771847441
15771854399
15771858366
15771865568
15771871183
15771878202
15771883329
15771889189
15771896391
15771901823
15771907988
15771914518
15771920500
15771926969
15771930265
15771938322
15771944792
15771950773
15771954191
15771963407
15771968717
15771974577
15771980253
15771986845
15771991972
15771999174
15772004423
15772010954
15772017729
15772023405
15772030546
15772035734
15772041105
15772048734
15772053983
15772059110
15772066495
15772070707
15772078886
15772082120
15772091154
15772097257
15772103788
15772108732
15772115751
15772122342
15772127653
15772134916
15772140165
15772146695
15772152677
15772159208
15772169767
15772178678
15772183439
15772194242
15772200772
15772209806
15772216581
15772223172
15772227872
15772235196
15772242215
15772248319
15772256558
15772263211
15772269681
15772277432
15772282620
15772287808
15772294278
15772300015
15772306546
15772311978
15772316129
15772321866
15772327786
15772337186
15772342496
15772347501
15772353482
15772359952
15772365018
15772372403
15772378140
15772382779
15772389249
15772393338
15772400052
15772404324
15772410733
15772414273
15772424100
15772434781
15772441189
15772446072
15772452054
15772458523
15772461941
15772468289
15772471158
15772479031
15772484036
15772489102
15772493557
15772501736
15772508572
15772516873
15772522671
15772527859
15772532070
15772539212
15772544583
15772551052
15772554714
15772561367
15772566921
15772572109
15772578091
15772583218
15772587368
15772594814
15772599148
15772605801
15772610622
15772617336
15772622463
15772629055
15772633511
15772641750
15772646633
15772653469
15772660244
15772665798
15772671902
15772677395
15772683559
15772691677
15772696682
15772701748
15772708523
15772712856
15772719326
15772722988
15772731228
15772734157
15772743374
15772747158
15772755153
15772758205
15772765529
15772770046
15772776760
15772781826
15772789943
15772795192
15772802028
15772808071
15772816066
15772820766
15772827602
15772832424
15772840419
15772845729
15772851589
15772856777
15772865322
15772870021
15772875820
15772881252
15772888271
15772892787
15772899196
15772904750
15772910243
15772915797
15772920253
15772925685
15772933559
15772938197
15772943813
15772949184
15772954677
15772960170
15772965053
15772971156
15772977260
15772985011
15772992213
15772999965
15773005641
15773012965
15773020473
15773027797
15773034022
15773042445
15773048488
15773056849
15773062709
15773071498
15773078822
15773086024
15773093104
15773102443
15773106898
15773118129
15773122279
15773132777
15773138636
15773146510
15773155177
15773162196
15773168238
15773178614
15773182643
15773192469
15773198390
15773206751
15773212367
15773223353
15773227564
15773237635
15773243678
15773251734
15773259608
15773266138
15773273768
15773282740
15773288904
15773298060
15773303553
15773310633
15773317835
15773324976
15773332911
15773341395
15773349024
15773355738
15773363001
15773371119
15773377222
15773384790
15773393396
15773402735
15773411341
15773419641
15773425562
15773434656
15773440698
15773446802
15773456140
15773464014
15773473352
15773479151
15773488001
15773496729
15773504053
15773508203
15773517786
15773524561
15773537134
15773542139
15773552148
15773558435
15773566980
15773575403
15773583154
15773591272
15773601709
15773608240
15773617029
15773623071
15773631555
15773640161
15773646814
15773654748
15773661462
15773671045
15773679651
15773686242
15773690942
15773701806
15773709924
15773717492
15773725732
15773733239
15773742028
15773749047
15773755761
15773763513
15773769738
15773779260
15773788354
15773796410
15773802819
15773811059
15773817040
15773825890
15773833947
15773841698
15773849938
15773857262
15773866051
15773872765
15773880822
15773886071
15773895592
15773903954
15773909875
15773917687
15773928856
15773938134
15773944481
15773952660
15773960106
15773968895
15773975914
15773982994
15773993248
15773997765
15774006554
15774012657
15774021508
15774030175
15774038170
15774044640
15774054466
15774060448
15774068077
15774076622
15774085167
15774094139
15774101097
15774107201
15774115257
15774124657
15774131126
15774140282
15774145164
15774154442
15774162071
15774168968
15774191063
15774203209
15774208031
15774220970
15774229576
15774237510
15774246544
15774253990
15774262901
15774270591
15774279258
15774286766
15774295616
15774303672
15774311851
15774319847
15774326499
15774338340
15774343040
15774352867
15774361656
15774368492
15774376304
15774385337
15774391197
15774398887
15774403404
15774410667
15774415855
15774423118
15774427573
15774435325
15774440147
15774446067
15774450217
15774456077
15774461631
15774467307
15774471580
15774480186
15774484580
15774490623
15774495139
15774501853
15774506064
15774511741
15774516685
15774523520
15774529258
15774533896
15774539878
15774545676
15774551535
15774556113
15774561240
15774568808
15774572959
15774578818
15774584433
15774589438
15774594687
15774599509
15774604148
15774611777
15774617758
15774623435
15774627219
15774633444
15774638938
15774642905
15774651633
15774656333
15774662253
15774668234
15774672873
15774678488
15774684226
15774689597
15774696799
15774703818
15774708701
15774712973
15774719016
15774723288
15774730185
15774733115
15774742392
15774746481
15774754660
15774760153
15774767111
15774773276
15774779562
15774785177
15774791647
15774797568
15774803244
15774808249
15774813803
15774819113
15774823385
15774830282
15774836142
15774842123
15774846884
15774851706
15774857321
15774864706
15774873129
15774878866
15774884359
15774890585
15774897604
15774903463
15774909140
15774914633
15774919638
15774927023
15774932272
15774938986
15774944235
15774951864
15774956808
15774963644
15774969015
15774978536
15774983114
15774988485
15774992208
15774998739
15775004659
15775009481
15775014913
15775021200
15775024618
15775032552
15775037740
15775043539
15775049947
15775054830
15775060323
15775065511
15775071493
15775076192
15775081136
15775087240
15775090108
15775098470
15775105428
15775111349
15775114705
15775124166
15775130147
15775135213
15775139730
15775145467
15775152242
15775160604
15775166219
15775172872
15775177449
15775183797
15775189046
15775194966
15775200887
15775207601
15775213948
15775218892
15775225362
15775229634
15775236409
15775240987
15775247701
15775251912
15775260030
15775264058
15775271504
15775277242
15775282308
15775287373
15775292989
15775297994
15775307088
15775312154
15775319478
15775324605
15775329732
15775335652
15775341206
15775347737
15775355061
15775360310
15775365864
15775371846
15775377705
15775382649
15775389302
15775395405
15775401082
15775408894
15775414082
15775421223
15775425679
15775433857
15775439229
15775444355
15775450337
15775457539
15775460896
15775470723
15775473652
15775480610
15775485188
15775493306
15775498066
15775505940
15775512226
15775516926
15775524555
15775531574
15775536152
15775544575
15775550862
15775561115
15775569721
15775575276
15775584736
15775593037
15775599201
15775606037
15775614765
15775621967
15775631611
15775639118
15775646503
15775654255
15775661213
15775667744
15775676411
15775682575
15775693561
15775701008
15775707905
15775714557
15775727070
15775733661
15775742023
15775748066
15775759601
15775763813
15775773639
15775779987
15775788776
15775797016
15775804523
15775810627
15775821796
15775830158
15775836444
15775844928
15775852435
15775860309
15775865985
15775874896
15775882037
15775891315
15775896930
15775905780
15775909991
15775921771
15775925800
15775936420
15775943683
15775952289
15775958881
15775968158
15775977008
15775982989
15775990863
15775999164
15776005328
15776014789
15776023272
15776029986
15776038409
15776044085
15776051959
15776060016
15776066729
15776074115
15776086627
15776092547
15776102252
15776110064
15776116168
15776122882
15776132220
15776136126
15776148089
15776156268
15776163287
15776169390
15776179278
15776185992
15776194415
15776201128
15776211810
15776218340
15776226641
15776234881
15776242510
15776248492
15776256365
15776264971
15776273028
15776283404
15776289019
15776297930
15776304217
15776313494
15776320940
15776330095
15776334368
15776345537
15776350115
15776362383
15776371660
15776381121
15776390032
15776398088
15776407488
15776417498
15776423540
15776432695
15776437517
15776449053
15776453691
15776463457
15776471330
15776478960
15776486345
15776493913
15776499895
15776509111
15776515154
15776525652
15776531755
15776542741
15776547136
15776555986
15776566301
15776575029
15776580949
15776591569
15776598161
15776607011
15776615800
15776622514
15776630693
15776638383
15776646379
15776654741
15776660966
15776668657
15776678117
15776686723
15776695390
15776702592
15776710954
15776717240
15776724137
15776734025
15776743546
15776751725
15776757707
15776765702
15776773148
15776781876
15776788895
15776797074
15776804581
15776813493
15776820756
15776830094
15776838273
15776844437
15776854447
15776860795
15776872513
15776877213
15776886979
15776893204
15776902543
15776911637
15776918656
15776926896
15776935990
15776942460
15776951859
15776956009
15776962418
15776966935
15776973099
15776977677
15776987320
15776994278
15776999405
15777004349
15777010147
15777014176
15777019974
15777026932
15777032791
15777037857
15777043350
15777049332
15777054886
15777059158
15777064591
15777071304
15777076370
15777083389
15777089981
15777098221
15777103165
15777111099
15777116531
15777124771
15777131607
15777137955
15777143143
15777150772
15777155777
15777163711
15777169021
15777175857
15777179764
15777185806
15777191482
15777197098
15777201309
15777207351
15777212112
15777221084
15777226272
15777232742
15777238479
15777242874
15777249527
15777255935
15777260086
15777267044
15777270767
15777278213
15777284561
15777289932
15777292984
15777300735
15777307815
15777315261
15777319290
15777326370
15777331802
15777336807
15777341628
15777348709
15777353042
15777362991
15777367996
15777374160
15777380386
15777386489
15777391006
15777397109
15777403396
15777408828
15777416213
15777422134
15777426711
15777432815
15777439101
15777443374
15777450210
15777456313
15777461745
15777467971
15777473220
15777478469
15777485061
15777490737
15777495986
15777501235
15777508010
15777514296
15777518935
15777524184
15777529433
15777534377
15777541274
15777547316
15777555251
15777561660
15777567397
15777573684
15777578871
15777583449
15777590529
15777596144
15777603224
15777608596
15777615248
15777622328
15777627638
15777633681
15777638259
15777644545
15777651808
15777659804
15777665602
15777670729
15777677016
15777681349
15777687880
15777692824
15777701125
15777707106
15777714919
15777719984
15777728224
15777733839
15777740675
15777747206
15777754042
15777758681
15777766798
15777771010
15777776320
15777782179
15777786940
15777791334
15777798597
15777803175
15777810011
15777814589
15777824659
15777829298
15777836989
15777842726
15777848280
15777853834
15777859877
15777865309
15777870558
15777874830
15777881239
15777885450
15777893751
15777898878
15777904066
15777908583
15777916090
15777921095
15777926954
15777932752
15777938978
15777943983
15777950819
15777955885
15777962599
15777968214
15777972608
15777979444
15777987074
15777993848
15778000501
15778005018
15778010816
15778016615
15778023206
15778031080
15778040723
15778047437
15778052198
15778058790
15778062452
15778069532
15778075452
15778080945
15778085462
15778094251
15778099622
15778105420
15778109754
15778117017
15778121717
15778127637
15778133436
15778140943
15778145704
15778150953
15778158399
15778165113
15778173474
15778181531
15778187574
15778197339
15778205396
15778209729
15778222180
15778226209
15778236768
15778240796
15778251904
15778256543
15778269971
15778278333
15778285046
15778291577
15778299695
15778307629
15778313916
15778322461
15778332654
15778339429
15778346020
15778356640
15778363049
15778372693
15778379223
15778387646
15778395825
15778403821
15778413586
15778421521
15778429333
15778437268
15778442761
15778452588
15778459118
15778467297
15778476696
15778484326
15778492749
15778499707
15778506848
15778513439
15778524426
15778533764
15778541516
15778551037
15778557568
15778561901
15778575024
15778580395
15778590099
15778598339
15778606213
15778614513
15778622448
15778628857
15778637035
15778644482
15778652965
15778661266
15778668957
15778675609
15778682201
15778692638
15778697826
15778707287
15778712902
15778723400
15778731395
15778741954
15778747264
15778757701
15778762401
15778771312
15778777782
15778786449
15778793773
15778805675
15778812145
15778820323
15778827770
15778836864
15778843517
15778851634
15778858898
15778869457
15778876781
15778885143
15778892894
15778900035
15778909557
15778915355
15778924876
15778933604
15778941295
15778949473
15778957896
15778965526
15778972972
15778979503
15778988841
15778997081
15779010081
15779018748
15779027537
15779037364
15779045176
15779052562
15779059336
15779069285
15779077769
15779086619
15779093699
15779100840
15779109385
15779116465
15779123728
15779132151
15779140635
15779148020
15779155222
15779162730
15779172373
15779178355
15779186594
15779194285
15779201182
15779212229
15779221140
15779228098
15779235117
15779242441
15779253123
15779258982
15779268870
15779276926
15779284800
15779289744
15779300120
15779306894
15779315928
15779322580
15779331675
15779338999
15779348886
15779355295
15779363718
15779370737
15779376657
15779387461
15779393259
15779402658
15779408701
15779419321
15779427744
15779435312
15779442331
15779450327
15779456552
15779466745
15779473947
15779484384
15779493478
15779500864
15779507394
15779516244
15779523508
15779529794
15779538888
15779544748
15779555490
15779559884
15779569162
15779582162
15779589853
15779594308
15779606820
15779615243
15779621835
15779628427
15779634408
15779640573
15779651132
15779657968
15779666024
15779673776
15779682748
15779689035
15779694589
15779700936
15779706979
15779710214
15779719491
15779722543
15779732247
15779738778
15779744760
15779751901
15779757943
15779762765
15779769174
15779773934
15779781747
15779786385
15779793282
15779797982
15779804513
15779808297
15779814706
15779818978
15779825387
15779830880
15779836861
15779841073
15779846810
15779851632
15779858712
15779863289
15779870308
15779876351
15779883004
15779888863
15779895455
15779901009
15779907906
15779913643
15779917977
15779922982
15779929146
15779934700
15779942391
15779949044
15779955330
15779962105
15779968331
15779973946
15779980355
15779985665
15779991951
15779996407
15780001473
15780007027
15780012215
15780017769
15780023995
15780028450
15780034249
15780039559
15780043892
15780049263
15780057259
15780062203
15780069161
15780073128
15780080208
15780084663
15780091499
15780097847
15780103340
15780109444
15780115120
15780122078
15780128303
15780131782
15780137886
15780143135
15780151375
15780156380
15780162971
15780167915
15780173836
15780180977
15780185859
15780191963
15780198616
15780203376
15780209907
15780216987
15780220955
15780228767
15780233589
15780241035
15780246833
15780252266
15780258125
15780264656
15780269661
15780276374
15780281929
15780288642
15780296211
15780302680
15780309028
15780313545
15780319892
15780325446
15780332282
15780336494
15780343208
15780348396
15780356269
15780361396
15780367439
15780375312
15780381660
15780384895
15780393989
15780397346
15780405402
15780410651
15780418037
15780422431
15780429389
15780433845
15780439521
15780446052
15780451972
15780458686
15780463752
15780469916
15780474860
15780480964
15780485908
15780492560
15780498237
15780505195
15780509833
15780516303
15780521308
15780526496
15780531867
15780539191
15780544135
15780552863
15780559027
15780566657
15780572211
15780579291
15780583686
15780590033
15780595954
15780607794
15780612372
15780618414
15780624762
15780630499
15780634833
15780639166
15780646002
15780652716
15780658942
15780664130
15780670294
15780674750
15780679877
15780686041
15780691534
15780697882
15780703925
15780709540
15780715094
15780718146
15780726569
15780729681
15780737494
15780742438
15780749090
15780754645
15780759894
15780765997
15780772040
15780777594
15780783575
15780788336
15780792120
15780801397
15780805670
15780812506
15780818182
15780824347
15780830206
15780835760
15780841803
15780847906
15780854620
15780863897
15780867620
15780877142
15780883001
15780888372
15780895086
15780902716
15780909368
15780915289
15780920172
15780926885
15780932440
15780938055
15780945440
15780951666
15780957830
15780964239
15780969732
15780974737
15780982061
15780987615
15780994390
15780999395
15781008794
15781013677
15781019231
15781027044
15781034063
15781039129
15781045476
15781052862
15781057622
15781066045
15781073675
15781079351
15781085271
15781090459
15781096685
15781102727
15781111150
15781116582
15781123479
15781129705
15781132756
15781141057
15781145940
15781154302
15781159368
15781165654
15781175847
15781181340
15781186040
15781194036
15781199346
15781206792
15781212041
15781221013
15781225713
15781232671
15781237798
15781245244
15781249699
15781257207
15781264531
15781269353
15781274175
15781281743
15781285649
15781292363
15781297978
15781304326
15781309880
15781314702
15781317509
15781325505
15781331303
15781336369
15781342900
15781348454
15781354741
15781361394
15781364201
15781372014
15781375371
15781382268
15781388005
15781393925
15781396489
15781411503
15781418217
15781427250
15781432804
15781439762
15781445256
15781451786
15781453312
15781463566
15781467167
15781474858
15781479496
15781485844
15781490788
15781496647
15781502079
15781508732
15781514775
15781519413
15781525334
15781529972
15781535404
15781540104
15781542912
15781553410
15781559269
15781563725
15781570866
15781579105
15781584965
15781590214
15781596256
15781602482
15781607120
15781613651
15781618473
15781623905
15781629703
15781636051
15781638859
15781648441
15781652469
15781658451
15781663639
15781668766
15781673771
15781680851
15781686344
15781692569
15781699100
15781703861
15781709537
15781714359
15781719120
15781725162
15781730594
15781737308
15781742374
15781748905
15781753788
15781760623
15781765018
15781771915
15781780643
15781786685
15781793338
15781799747
15781805423
15781811344
15781816837
15781823306
15781830570
15781836063
15781843570
15781847598
15781853702
15781857486
15781864261
15781869144
15781876956
15781881595
15781888004
15781892154
15781898502
15781903262
15781910892
15781914981
15781922549
15781926456
15781936099
15781940677
15781952334
15781960147
15781971072
15781980349
15781987063
15781995852
15782003299
15782011538
15782021426
15782028933
15782036990
15782044497
15782051455
15782059024
15782066958
15782074526
15782083010
15782090579
15782099002
15782106387
15782115420
15782123904
15782132754
15782140261
15782149050
15782158022
15782165041
15782174807
15782182864
15782190676
15782198611
15782207217
15782216067
15782223757
15782232485
15782239992
15782249087
15782256655
15782265444
15782273256
15782281374
15782289980
15782298830
15782306459
15782313295
15782323122
15782331301
15782339785
15782348452
15782354372
15782364382
15782370607
15782380312
15782388674
15782398134
15782406435
15782415102
15782426515
15782431459
15782443666
15782454347
15782462892
15782472536
15782479311
15782490541
15782498659
15782510927
15782520082
15782529909
15782539674
15782546388
15782556886
15782562990
15782573976
15782584108
15782591737
15782600648
15782609559
15782616700
15782626405
15782634095
15782642701
15782650880
15782659852
15782665834
15782674867
15782679811
15782689759
15782696778
15782706727
15782715089
15782723573
15782734193
15782741822
15782749146
15782757142
15782764283
15782773743
15782780701
15782790101
15782797120
15782805115
15782814515
15782822755
15782831177
15782838746
15782846802
15782854737
15782863038
15782871583
15782880311
15782888184
15782895936
15782903199
15782913269
15782920105
15782928955
15782936646
15782943604
15782949585
15782959473
15782966797
15782975769
15782984070
15782993469
15782999756
15783008911
15783017456
15783025391
15783033508
15783041199
15783048035
15783057251
15783065491
15783073486
15783081604
15783090454
15783097473
15783106934
15783114014
15783120117
15783131714
15783139343
15783148376
15783155273
15783164062
15783172790
15783181762
15783189758
15783197937
15783206909
15783215393
15783223632
15783228393
15783232910
15783237548
15783245178
15783251831
15783258667
15783265625
15783272094
15783278991
15783283935
15783290893
15783295104
15783301452
15783303649
15783310851
15783316284
15783321838
15783327209
15783331603
15783335082
15783340148
15783344177
15783349120
15783354797
15783358886
15783364867
15783368285
15783373412
15783376891
15783383300
15783387878
15783396300
15783402343
15783406982
15783412353
15783416991
15783421020
15783425597
15783431762
15783436706
15783441039
15783445922
15783451049
15783453429
15783460204
15783464782
15783470824
15783476073
15783480895
15783484374
15783489440
15783493468
15783498473
15783504516
15783508117
15783512999
15783517516
15783521910
15783526366
15783530700
15783535277
15783541930
15783546386
15783551940
15783555480
15783561034
15783566222
15783570616
15783576720
15783582762
15783587584
15783593199
15783597716
15783602477
15783606444
15783612364
15783617064
15783623900
15783630553
15783635069
15783641173
15783646971
15783651427
15783656310
15783662535
15783668761
15783672423
15783679198
15783684203
15783690794
15783695738
15783702391
15783707457
15783713194
15783719969
15783726378
15783733824
15783742491
15783748839
15783754149
15783761229
15783768309
15783773497
15783780638
15783788206
15783793638
15783801268
15783806578
15783811277
15783816526
15783820005
15783825743
15783828306
15783835447
15783841856
15783846678
15783853025
15783858030
15783864561
15783869627
15783875303
15783881834
15783888487
15783894712
15783900511
15783904905
15783910948
15783915159
15783921934
15783927732
15783933531
15783938474
15783944639
15783949217
15783955564
15783961057
15783967893
15783973081
15783978818
15783984190
15783990476
15783995725
15784002500
15784007261
15784014097
15784020200
15784024900
15784031553
15784036497
15784042661
15784048398
15784054014
15784059324
15784066404
15784069761
15784076963
15784082395
15784089536
15784094358
15784100644
15784106321
15784111753
15784118161
15784122312
15784129148
15784135984
15784141599
15784148740
15784153623
15784159482
15784164792
15784171567
15784177243
15784183286
15784188657
15784192075
15784200925
15784206723
15784212094
15784216977
15784223386
15784230649
15784236264
15784241269
15784246579
15784254575
15784259885
15784265195
15784272214
15784278744
15784284604
15784290585
15784294186
15784303158
15784308041
15784315915
15784320859
15784330319
15784337521
15784345456
15784350277
15784358212
15784364010
15784371701
15784377560
15784384579
15784389340
15784398739
15784403683
15784408383
15784414303
15784419003
15784421688
15784431820
15784435482
15784442196
15784447995
15784452816
15784458493
15784463314
15784466122
15784474545
15784479855
15784484677
15784491085
15784496395
15784501949
15784506649
15784511166
15784519161
15784524777
15784529904
15784535641
15784540829
15784545712
15784552547
15784557735
15784566647
15784571590
15784577633
15784583492
15784588924
15784594845
15784600521
15784606624
15784611690
15784617489
15784623104
15784629146
15784635311
15784641170
15784645565
15784652828
15784658321
15784664547
15784670955
15784679012
15784684810
15784689876
15784697872
15784703426
15784710140
15784714717
15784722835
15784728450
15784736812
15784740108
15784748348
15784753047
15784760189
15784765193
15784772396
15784777950
15784786617
15784791683
15784798885
15784803768
15784810298
15784816585
15784822078
15784826595
15784831783
15784838802
15784843929
15784850642
15784855647
15784860835
15784868343
15784873042
15784878596
15784885860
15784891536
15784898494
15784904109
15784909175
15784915584
15784923152
15784928828
15784934505
15784943660
15784947444
15784959407
15784962947
15784971980
15784975825
15784984675
15784990229
15784997676
15785002986
15785011470
15785017878
15785023005
15785027522
15785033869
15785036677
15785043452
15785047847
15785055842
15785062434
15785067683
15785071772
15785077998
15785081965
15785088313
15785092463
15785101191
15785104182
15785111933
15785117304
15785122370
15785128291
15785133051
15785137934
15785145747
15785150385
15785155634
15785160639
15785167170
15785172175
15785177851
15785182978
15785191523
15785197077
15785202997
15785207697
15785215143
15785219721
15785224970
15785231501
15785238947
15785244623
15785251948
15785258112
15785264094
15785267450
15785274897
15785279718
15785289179
15785292780
15785299616
15785305414
15785312494
15785318109
15785324945
15785331659
15785338922
15785343500
15785348993
15785354669
15785360590
15785363764
15785372919
15785376093
15785384088
15785388727
15785395380
15785400629
15785408685
15785413507
15785420038
15785424738
15785430475
15785437372
15785443720
15785450067
15785455316
15785461542
15785466425
15785472589
15785479303
15785484674
15785492486
15785497735
15785504388
15785511285
15785517633
15785524530
15785532770
15785538446
15785546380
15785552301
15785560235
15785565545
15785572320
15785577386
15785586602
15785595147
15785601434
15785607354
15785613031
15785619683
15785623956
15785631280
15785636346
15785642388
15785646844
15785654046
15785658502
15785665948
15785670587
15785680230
15785685357
15785691522
15785694573
15785700860
15785706170
15785710381
15785716180
15785722283
15785728021
15785733147
15785737847
15785742791
15785748467
15785752679
15785759881
15785764519
15785770806
15785774895
15785781060
15785785210
15785791741
15785797234
15785803948
15785809685
15785818230
15785823479
15785829461
15785833672
15785839104
15785845757
15785849724
15785855462
15785860405
15785865410
15785870781
15785876702
15785882256
15785887993
15785894097
15785898186
15785903374
15785909233
15785913201
15785919915
15785926506
15785933037
15785937920
15785943718
15785949883
15785955742
15785960137
15785965508
15785972893
15785977532
15785983940
15785989067
15785993279
15785998650
15786004448
15786008415
15786015190
15786019707
15786027458
15786031731
15786037529
15786043755
15786048515
15786052605
15786059257
15786063774
15786071709
15786077385
15786082573
15786087883
15786096733
15786102348
15786108879
15786115776
15786123344
15786129936
15786136711
15786143547
15786151420
15786155571
15786162163
15786165947
15786171562
15786175285
15786181999
15786187370
15786194572
15786198051
15786205925
15786210380
15786216423
15786221550
15786226860
15786230583
15786239799
15786246147
15786251762
15786257255
15786261650
15786269218
15786274894
15786281059
15786285636
15786292716
15786296806
15786302299
15786306449
15786312431
15786317741
15786324699
15786331352
15786336478
15786340507
15786346854
15786351188
15786357719
15786361625
15786369437
15786376029
15786381095
15786387199
15786391898
15786396537
15786402396
15786408866
15786415397
15786421439
15786427299
15786431327
15786436759
15786442496
15786448050
15786454032
15786460318
15786466361
15786471793
15786476554
15786481925
15786487174
15786492606
15786499442
15786504081
15786510794
15786514823
15786521842
15786525931
15786531302
15786536612
15786543326
15786546256
15786553519
15786557852
15786564749
15786569266
15786575003
15786580741
15786586539
15786591605
15786598990
15786603629
15786609061
15786615103
15786620291
15786626212
15786633292
15786640555
15786650259
15786655203
15786663565
15786670035
15786677542
15786683768
15786691214
15786699820
15786704092
15786712942
15786719046
15786724234
15786731802
15786737234
15786742239
15786747305
15786751516
15786757010
15786763357
15786768606
15786774344
15786778555
15786784597
15786790091
15786795279
15786799368
15786805655
15786810476
15786817495
15786822073
15786830191
15786832937
15786839834
15786844778
15786849600
15786853628
15786862112
15786867971
15786874563
15786878897
15786885183
15786890798
15786895071
15786901174
15786907827
15786916860
15786922476
15786928274
15786935537
15786941274
15786944143
15786953847
15786958852
15786964284
15786969717
15786975149
15786980703
15786986318
15786994253
15786999074
15787005910
15787010122
15787015310
15787019460
15787026113
15787030202
15787037038
15787044179
15787049611
15787054799
15787059560
15787065114
15787069753
15787074575
15787082387
15787086354
15787093007
15787096730
15787104360
15787108815
15787115224
15787118215
15787127004
15787132497
15787137868
15787142324
15787148488
15787153249
15787158986
15787166127
15787172841
15787177907
15787184560
15787189687
15787194447
15787201405
15787208486
15787214345
15787220937
15787228139
15787234242
15787241689
15787244801
15787255055
15787262807
15787268849
15787274281
15787281544
15787286000
15787292714
15787294606
15787303273
15787308156
15787314259
15787320912
15787326161
15787333668
15787338246
15787345387
15787351429
15787358937
15787363881
15787371083
15787376515
15787381825
15787386036
15787392567
15787396717
15787403675
15787407887
15787414296
15787418324
15787424916
15787431263
15787438282
15787439869
15787451405
15787456227
15787462940
15787467823
15787474110
15787479298
15787484669
15787487782
15787496815
15787500538
15787508595
15787513172
15787521839
15787527638
15787532764
15787537708
15787545582
15787551014
15787556995
15787561512
15787567188
15787573658
15787578663
15787584583
15787589344
15787596180
15787600635
15787607715
15787613453
15787619251
15787623646
15787630237
15787633167
15787642933
15787647754
15787654163
15787658619
15787665332
15787671497
15787677478
15787681751
15787690540
15787695118
15787701953
15787708179
15787713123
15787719593
15787725147
15787730945
15787737781
15787742664
15787749805
15787752735
15787760242
15787766162
15787771350
15787775928
15787785144
15787790393
15787802356
15787807239
15787813892
15787821582
15787827258
15787834033
15787842273
15787848804
15787856555
15787861804
15787868518
15787873645
15787879871
15787884936
15787890185
15787894946
15787902331
15787907702
15787914172
15787919238
15787926257
15787930896
15787938159
15787942981
15787948169
15787954211
15787959887
15787965564
15787971484
15787976184
15787982776
15787987597
15787994799
15788000232
15788006823
