15617151426
15617157346
15617162839
15617168760
15617174009
15617178891
15617184995
15617191343
15617198484
15617203916
15617210263
15617218259
15617224424
15617230466
15617236325
15617243467
15617249814
15617257993
15617264524
15617271360
15617277219
15617284970
15617292661
15617300351
15617311093
15617318601
15617326047
15617342099
15617347043
15617356015
15617362180
15617369260
15617377255
15617383603
15617392392
15617399411
15617407162
15617415951
15617423825
15617431271
15617439206
15617448971
15617455685
15617461484
15617466977
15617475033
15617482235
15617488522
15617495297
15617499630
15617508786
15617513424
15617520687
15617527951
15617533932
15617540158
15617547177
15617552792
15617560726
15617566708
15617574520
15617581112
15617588192
15617594357
15617601193
15617608334
15617615841
15617623348
15617630184
15617634945
15617643002
15617648007
15617654293
15617661373
15617666012
15617674068
15617680904
15617688351
15617694820
15617702511
15617708736
15617715694
15617722164
15617728573
15617735164
15617740352
15617747249
15617753902
15617759945
15617768551
15617773922
15617779537
15617787227
15617794979
15617802974
15617810115
15617815059
15617821773
15617828731
15617834590
15617840511
15617847103
15617855403
15617859981
15617870540
15617877376
15617885799
15617893245
15617898616
15617907344
15617913631
15617921016
15617927425
15617934566
15617941158
15617947566
15617955562
15617960078
15617968501
15617975764
15617982295
15617990840
15617997005
15618004329
15618010371
15618018733
15618022029
15618031001
15618036860
15618044124
15618050899
15618056941
15618063472
15618067805
15618076228
15618082271
15618089106
15618095515
15618101436
15618107356
15618113154
15618119136
15618125178
15618131770
15618137690
15618145869
15618152522
15618158869
15618165339
15618171076
15618177363
15618183344
15618190669
15618195246
15618202754
15618208003
15618214533
15618220088
15618227107
15618233515
15618240290
15618246150
15618252009
15618259028
15618266291
15618273737
15618280085
15618286921
15618291926
15618299250
15618306208
15618312495
15618319147
15618325922
15618332209
15618338618
15618345209
15618350092
15618358332
15618365595
15618371821
15618378901
15618385981
15618392756
15618399897
15618406244
15618412775
15618417841
15618426264
15618434381
15618441706
15618448603
15618455927
15618463678
15618470819
15618477228
15618485651
15618494135
15618502985
15618510004
15618515436
15618524713
15618531183
15618538873
15618545892
15618553705
15618560236
15618567621
15618575067
15618581171
15618587091
15618593988
15618601190
15618607843
15618614252
15618618524
15618624322
15618627801
15618634332
15618637323
15618644037
15618646661
15618653375
15618656183
15618665033
15618669610
15618676568
15618681451
15618686822
15618691217
15618697137
15618700006
15618706842
15618712152
15618717645
15618722223
15618728387
15618733087
15618739007
15618743219
15618748712
15618754144
15618760491
15618766229
15618772393
15618777520
15618783380
15618788323
15618794976
15618800286
15618806146
15618811883
15618817864
15618822747
15618826775
15618833428
15618837640
15618843316
15618848321
15618854974
15618859307
15618866936
15618871819
15618877740
15618882134
15618886956
15618895074
15618901055
15618905938
15618911492
15618918206
15618923150
15618928277
15618934746
15618940606
15618943780
15618952813
15618959343
15618964837
15618970269
15618975640
15618980584
15618985833
15618994561
15618999749
15619004082
15619010064
15619016472
15619020806
15619027214
15619031609
15619039543
15619044304
15619051201
15619056267
15619061821
15619067803
15619073906
15619079033
15619087517
15619095574
15619101738
15619110344
15619118340
15619124443
15619127373
15619134331
15619138786
15619146416
15619149345
15619157219
15619160088
15619167656
15619170586
15619178032
15619182793
15619189445
15619194328
15619199089
15619203239
15619208610
15619214531
15619220085
15619225090
15619230583
15619236015
15619241630
15619246330
15619253105
15619257438
15619263664
15619270561
15619277336
15619282829
15619287223
15619293876
15619299430
15619304496
15619310234
15619315666
15619323295
15619329277
15619332634
15619340568
15619344902
15619352409
15619357048
15619363395
15619370719
15619377189
15619381645
15619387321
15619393669
15619398368
15619404106
15619408439
15619415946
15619422111
15619427421
15619432792
15619439567
15619445365
15619451102
15619456290
15619461600
15619468681
15619474174
15619479240
15619486014
15619490958
15619497367
15619502311
15619509147
15619514335
15619520927
15619526603
15619531852
15619536979
15619543448
15619546439
15619554984
15619563163
15619568778
15619574698
15619579825
15619585135
15619591727
15619594535
15619601188
15619607901
15619612906
15619616935
15619624381
15619629019
15619633719
15619638114
15619645621
15619654288
15619660269
15619666251
15619672110
15619678397
15619684989
15619688468
15619698416
15619705679
15619711478
15619717032
15619721915
15619726675
15619732352
15619737662
15619742972
15619748343
15619754385
15619759818
15619766226
15619771841
15619778860
15619785879
15619793387
15619800955
15619807974
15619815237
15619820914
15619830130
15619835928
15619845328
15619855826
15619862539
15619869619
15619878347
15619885489
15619892263
15619898001
15619908194
15619915823
15619923025
15619931631
15619938406
15619945425
15619954092
15619961233
15619970205
15619976614
15619985403
15619991689
15620000234
15620006765
15620015554
15620023245
15620031789
15620041860
15620050283
15620058279
15620066030
15620073293
15620080801
15620086660
15620096670
15620103506
15620111318
15620119253
15620125173
15620133169
15620140920
15620148427
15620157522
15620165700
15620171804
15620180410
15620188039
15620195546
15620201101
15620210378
15620216726
15620226735
15620232350
15620240041
15620246572
15620256459
15620262441
15620270314
15620280690
15620288014
15620297353
15620304250
15620311025
15620317555
15620325734
15620332692
15620342763
15620349965
15620358327
15620364857
15620371388
15620381154
15620385548
15620398427
15620405751
15620415700
15620421315
15620431203
15620440358
15620447865
15620456349
15620463185
15620471241
15620480580
15620485951
15620494740
15620502613
15620510121
15620517750
15620525746
15620534230
15620540028
15620548146
15620556141
15620563587
15620571278
15620577381
15620586231
15620595143
15620603260
15620609730
15620617542
15620625599
15620631336
15620640003
15620646961
15620655628
15620663441
15620672230
15620678150
15620686573
15620692554
15620700855
15620709827
15620718921
15620724903
15620732899
15620741810
15620749012
15620755054
15620765247
15620773060
15620781910
15620785938
15620796558
15620800281
15620810596
15620817615
15620824756
15620832386
15620842090
15620845996
15620856800
15620860767
15620872180
15620878223
15620887988
15620896594
15620904956
15620911060
15620919421
15620926624
15620934375
15620940601
15620949756
15620957812
15620965991
15620974170
15620979846
15620987109
15620994617
15621002063
15621011401
15621020312
15621028308
15621035510
15621043506
15621051440
15621059314
15621065417
15621073596
15621082324
15621088061
15621096911
15621104724
15621111682
15621117907
15621123645
15621129199
15621138293
15621144091
15621153063
15621156726
15621164477
15621169604
15621176623
15621181933
15621190844
15621196948
15621201525
15621205737
15621211535
15621215685
15621222399
15621228198
15621233874
15621238390
15621243822
15621248644
15621254931
15621260912
15621266589
15621273363
15621276232
15621282519
15621286669
15621292040
15621296740
15621303637
15621310351
15621315661
15621321520
15621327196
15621332812
15621337755
15621342943
15621350573
15621357409
15621362841
15621368151
15621373583
15621379747
15621384935
15621389513
15621394823
15621401598
15621407763
15621412706
15621419664
15621425524
15621430223
15621436571
15621443285
15621451158
15621456529
15621462328
15621466783
15621473680
15621478075
15621484667
15621490343
15621495958
15621502794
15621509203
15621512010
15621521288
15621524339
15621531175
15621536058
15621543382
15621549303
15621555467
15621560472
15621566026
15621571825
15621577501
15621583910
15621588609
15621596117
15621601304
15621606737
15621613023
15621618760
15621622484
15621628953
15621635606
15621641404
15621647813
15621655137
15621658006
15621666551
15621671067
15621677354
15621681871
15621688035
15621694566
15621701341
15621706346
15621711961
15621717820
15621721910
15621729661
15621735154
15621741136
15621747544
15621753648
15621760423
15621767320
15621772874
15621781785
15621788438
15621795640
15621800950
15621806565
15621811387
15621817063
15621820908
15621827256
15621832444
15621838059
15621842149
15621848801
15621852891
15621859605
15621866196
15621871323
15621877061
15621882371
15621889939
15621895859
15621901719
15621906846
15621912522
15621917710
15621922165
15621928391
15621936631
15621942490
15621946946
15621952744
15621958664
15621965439
15621970139
15621976120
15621981186
15621988205
15621993210
15621998215
15622005173
15622011155
15622016220
15622023362
15622030014
15622035813
15622041001
15622048203
15622053513
15622057907
15622063584
15622070236
15622075424
15622081528
15622088059
15622092575
15622097580
15622104416
15622109787
15622114304
15622119675
15622125412
15622131943
15622139328
15622145248
15622150314
15622155930
15622160934
15622165390
15622171066
15622178024
15622184799
15622189621
15622194870
15622200790
15622206711
15622212875
15622217087
15622224106
15622231369
15622236068
15622240890
15622247421
15622252365
15622259384
15622263473
15622270309
15622275680
15622281295
15622286667
15622291854
15622296859
15622304306
15622310043
15622317977
15622327438
15622337142
15622344772
15622352279
15622360397
15622367660
15622373824
15622382919
15622394332
15622402694
15622411117
15622417831
15622425338
15622434005
15622441879
15622448165
15622457198
15622464217
15622472152
15622480819
15622486495
15622495223
15622501082
15622510482
15622519332
15622527328
15622533614
15622541915
15622548812
15622557479
15622564925
15622571212
15622580977
15622590865
15622599959
15622606063
15622614424
15622620284
15622629622
15622636946
15622646651
15622652632
15622661482
15622670516
15622677046
15622682662
15622690779
15622700362
15622707686
15622712080
15622724348
15622731368
15622741560
15622746992
15622756148
15622763960
15622772932
15622780257
15622788008
15622793501
15622802229
15622809248
15622818342
15622827376
15622835310
15622841719
15622849653
15622857832
15622865461
15622872236
15622880354
15622888288
15622896467
15622904036
15622911726
15622918135
15622925520
15622932783
15622944074
15622954878
15622965681
15622974165
15622982343
15622995100
15623002424
15623015791
15623025739
15623035871
15623046491
15623058149
15623068159
15623076093
15623086591
15623094709
15623101667
15623108869
15623116071
15623122724
15623131818
15623139692
15623147321
15623155195
15623163373
15623168561
15623177839
15623183088
15623191449
15623197919
15623206220
15623212506
15623218671
15623225019
15623231488
15623238751
15623246564
15623254376
15623257733
15623267194
15623272870
15623280316
15623286969
15623296246
15623304425
15623310040
15623318951
15623324933
15623332074
15623339764
15623345746
15623353680
15623362347
15623368634
15623373639
15623382611
15623388775
15623397992
15623406903
15623415082
15623422162
15623429364
15623435895
15623442486
15623453351
15623460980
15623468670
15623476239
15623483136
15623490704
15623495770
15623504559
15623511639
15623521710
15623527691
15623534344
15623541485
15623549359
15623555706
15623563336
15623571392
15623578838
15623587017
15623597149
15623605511
15623612835
15623620647
15623627300
15623635601
15623640240
15623644085
15623650738
15623656658
15623662029
15623668133
15623674724
15623677471
15623684490
15623687237
15623694561
15623698894
15623704449
15623710491
15623717266
15623721538
15623727520
15623732769
15623738140
15623742901
15623747844
15623756145
15623761577
15623768474
15623774150
15623780925
15623786174
15623791973
15623798198
15623805217
15623810222
15623816143
15623821697
15623826213
15623831584
15623837078
15623842327
15623847942
15623853069
15623858623
15623864482
15623868572
15623873332
15623878276
15623883464
15623888164
15623894023
15623899333
15623904765
15623910442
15623915202
15623919902
15623924968
15623931316
15623935527
15623942058
15623947307
15623952068
15623957378
15623962016
15623968120
15623973796
15623979961
15623986125
15623988872
15623996135
15624001201
15624006267
15624010234
15624016276
15624021464
15624028056
15624035014
15624041057
15624045207
15624052287
15624056437
15624062541
15624068766
15624075480
15624079692
15624085124
15624089518
15624095317
15624100810
15624106181
15624111979
15624117350
15624121440
15624126811
15624131388
15624136881
15624142375
15624146464
15624152995
15624159770
15624165751
15624171122
15624176066
15624181254
15624186564
15624191020
15624198161
15624203532
15624210001
15624215922
15624220255
15624225382
15624230326
15624234782
15624242167
15624247660
15624253458
15624258341
15624264445
15624268961
15624274210
15624280558
15624285258
15624293986
15624299174
15624306132
15624311197
15624315165
15624323649
15624328470
15624336527
15624342875
15624349405
15624353190
15624359293
15624365030
15624374186
15624388529
15624402262
15624412027
15624419351
15624426493
15624429422
15624434549
15624438272
15624444010
15624448709
15624453287
15624457987
15624462686
15624467386
15624471964
15624476602
15624480448
15624485697
15624490213
15624494180
15624498209
15624502725
15624507852
15624512979
15624517313
15624522867
15624526346
15624531351
15624535806
15624540079
15624545633
15624550149
15624557169
15624561929
15624566995
15624571268
15624573953
15624582132
15624584695
15624590982
15624599527
15624604654
15624607095
15624614297
15624619424
15624624307
15624628152
15624634683
15624640115
15624644998
15624650979
15624655862
15624658181
15624666299
15624668679
15624675210
15624681558
15624688089
15624692483
15624699441
15624703591
15624708474
15624714517
15624720254
15624724893
15624731729
15624736978
15624741250
15624748940
15624756082
15624764077
15624770120
15624777810
15624787148
15624796426
15624802590
15624812539
15624819497
15624828042
15624833962
15624841775
15624851357
15624859048
15624862954
15624873269
15624881692
15624888344
15624895913
15624903054
15624910683
15624921914
15624926186
15624937417
15624943703
15624951577
15624957924
15624967385
15624975869
15624985817
15624994667
15625003945
15625009438
15625017617
15625023781
15625032692
15625041054
15625049477
15625055702
15625064125
15625069985
15625077431
15625085610
15625091408
15625101051
15625109657
15625115578
15625122780
15625130653
15625139809
15625146034
15625154396
15625161598
15625169350
15625180824
15625187660
15625195717
15625203285
15625212074
15625219276
15625228004
15625235450
15625241676
15625250404
15625257789
15625264381
15625271949
15625279029
15625285560
15625294960
15625301124
15625308570
15625315773
15625321937
15625328529
15625336891
15625343360
15625352577
15625358314
15625366371
15625372230
15625380164
15625387855
15625394813
15625400550
15625408729
15625415504
15625423621
15625430335
15625437232
15625446387
15625451392
15625462134
15625471168
15625477759
15625484046
15625493323
15625500831
15625506629
15625514869
15625522437
15625530555
15625541053
15625548621
15625555457
15625563147
15625570716
15625576819
15625585791
15625592444
15625601905
15625608069
15625616431
15625622229
15625630591
15625638281
15625646521
15625655921
15625664160
15625672705
15625679175
15625687048
15625692297
15625701453
15625710303
15625719580
15625730444
15625738501
15625745337
15625752966
15625760962
15625768713
15625776587
15625783362
15625791235
15625798742
15625805517
15625813147
15625820654
15625827856
15625834753
15625842566
15625850622
15625856054
15625863806
15625870947
15625877356
15625884436
15625891394
15625898840
15625905126
15625912634
15625918615
15625925756
15625933325
15625940954
15625947485
15625955602
15625964697
15625972265
15625979040
15625986852
15625993444
15626000646
15626006689
15626014379
15626023168
15626031042
15626038549
15626045080
15626052526
15626060338
15626066442
15626076147
15626081823
15626086339
15626092748
15626098180
15626101842
15626108251
15626113683
15626119176
15626125524
15626130834
15626136632
15626141271
15626145910
15626152257
15626156347
15626161779
15626167150
15626173497
15626177831
15626183751
15626188939
15626194249
15626198278
15626204564
15626210118
15626215795
15626222020
15626227819
15626231786
15626236669
15626242528
15626248387
15626252843
15626257482
15626264012
15626268407
15626273656
15626277806
15626284032
15626288060
15626295873
15626300572
15626310094
15626315526
15626320409
15626323888
15626331822
15626336156
15626340672
15626348363
15626353306
15626357945
15626364964
15626371251
15626377598
15626382298
15626388157
15626396519
15626403416
15626408299
15626415196
15626419163
15626424595
15626430089
15626434483
15626441502
15626447178
15626451390
15626457249
15626462132
15626466526
15626471409
15626476353
15626481175
15626487522
15626491795
15626497837
15626501866
15626507969
15626512669
15626517491
15626522618
15626527989
15626534397
15626537937
15626544529
15626550877
15626555454
15626560215
15626566807
15626572971
15626578037
15626582737
15626588963
15626593723
15626598606
15626603489
15626610264
15626617771
15626623020
15626627354
15626634006
15626638035
15626643833
15626649937
15626656223
15626662327
15626667820
15626673374
15626678440
15626683689
15626688206
15626694736
15626698887
15626707248
15626714451
15626719700
15626724338
15626730930
15626735447
15626741428
15626745884
15626751438
15626756504
15626763157
15626769016
15626773716
15626779453
15626784214
15626788730
15626794467
15626802158
15626807346
15626811435
15626816745
15626822605
15626828830
15626833103
15626838779
15626843173
15626849155
15626855197
15626861301
15626865939
15626871372
15626876621
15626880283
15626887668
15626894443
15626901218
15626906833
15626910861
15626915866
15626921909
15626928317
15626934848
15626941379
15626946994
15626952975
15626958346
15626962863
15626969882
15626974216
15626980746
15626988986
15626993686
15626996188
15627003085
15627006747
15627013400
15627017123
15627021884
15627027987
15627032931
15627036960
15627042453
15627047335
15627052035
15627056186
15627063144
15627067782
15627074008
15627078219
15627084689
15627088717
15627094149
15627099459
15627104708
15627110995
15627115695
15627122103
15627125704
15627131869
15627136386
15627142245
15627146212
15627152621
15627158236
15627162692
15627167208
15627173739
15627179049
15627183688
15627188693
15627193881
15627201693
15627210543
15627219576
15627226351
15627232272
15627240938
15627247164
15627255099
15627263582
15627272249
15627278048
15627286715
15627294710
15627301912
15627307833
15627316378
15627325777
15627334261
15627340853
15627349520
15627355989
15627363558
15627370272
15627377596
15627385408
15627393465
15627401155
15627407015
15627415804
15627421907
15627430391
15627436189
15627445894
15627452425
15627461031
15627469392
15627476534
15627483003
15627490511
15627498323
15627506502
15627513643
15627522188
15627530855
15627538667
15627544588
15627550874
15627560029
15627565828
15627575532
15627583650
15627590913
15627598909
15627607698
15627613435
15627622957
15627630525
15627638582
15627648164
15627658540
15627666108
15627675569
15627679536
15627690217
15627697785
15627704866
15627711396
15627721711
15627727571
15627737336
15627743989
15627752290
15627759980
15627767548
15627774079
15627782380
15627790253
15627796479
15627801911
15627810883
15627816926
15627824738
15627832917
15627841401
15627847077
15627855439
15627863068
15627870637
15627877289
15627885285
15627891877
15627901032
15627908722
15627914643
15627923005
15627932465
15627938996
15627947113
15627955902
15627964630
15627971283
15627976837
15627985627
15627991852
15628001374
15628006745
15628016144
15628025055
15628032685
15628040375
15628047455
15628054962
15628061737
15628068085
15628076691
15628086945
15628094391
15628100555
15628108734
15628116425
15628122833
15628130951
15628138336
15628144745
15628154022
15628162384
15628169342
15628177765
15628182709
15628191864
15628197174
15628206390
15628214569
15628221771
15628230133
15628236847
15628245086
15628252533
15628260040
15628267059
15628273468
15628283294
15628289215
15628298065
15628310455
15628317901
15628324554
15628337676
15628345062
15628355865
15628360870
15628371612
15628378143
15628384856
15628391204
15628402923
15628409942
15628420318
15628427093
15628437163
15628443389
15628453826
15628459991
15628469634
15628476897
15628484832
15628490203
15628498931
15628507354
15628513640
15628519988
15628528716
15628535979
15628545379
15628550811
15628557524
15628561736
15628567290
15628570952
15628576262
15628581816
15628587615
15628591399
15628597319
15628601103
15628606658
15628612761
15628617827
15628622283
15628628935
15628633940
15628639006
15628643157
15628648955
15628654265
15628658537
15628664763
15628670744
15628675078
15628681303
15628689604
15628695708
15628699736
15628704741
15628710844
15628716948
15628722014
15628727080
15628730803
15628735991
15628740874
15628745573
15628751433
15628756193
15628760893
15628764738
15628769926
15628775786
15628781035
15628785368
15628792082
15628798308
15628802641
15628806975
15628812040
15628817228
15628822111
15628826872
15628831511
15628837187
15628842741
15628846220
15628852201
15628858305
15628862761
15628867521
15628872526
15628878141
15628883634
15628888639
15628893827
15628897734
15628903898
15628907987
15628914457
15628920988
15628925993
15628930204
15628936796
15628942594
15628947782
15628952238
15628958158
15628962797
15628968351
15628973661
15628979398
15628984159
15628989713
15628996793
15629001188
15629010953
15629016874
15629023344
15629029020
15629033659
15629038602
15629043546
15629047819
15629053739
15629058805
15629064176
15629067838
15629074308
15629079191
15629084257
15629088712
15629096708
15629102445
15629107938
15629111356
15629117154
15629121915
15629128385
15629131986
15629138211
15629142911
15629149381
15629152066
15629160672
15629163846
15629170621
15629174527
15629180692
15629185453
15629191861
15629195829
15629201993
15629207608
15629211637
15629216886
15629222684
15629227628
15629233304
15629239407
15629243131
15629249234
15629253140
15629258695
15629265103
15629271451
15629277554
15629281949
15629287320
15629292874
15629298245
15629302945
15629307767
15629312955
15629319852
15629327237
15629331570
15629337063
15629341458
15629347012
15629352872
15629357327
15629363919
15629369778
15629375149
15629380337
15629384732
15629389309
15629395169
15629399441
15629407193
15629410916
15629417630
15629422207
15629427029
15629432461
15629439053
15629444790
15629449673
15629454129
15629460171
15629464321
15629471524
15629476712
15629481777
15629487576
15629492886
15629498928
15629505337
15629510281
15629516628
15629520962
15629526455
15629532437
15629538540
15629545071
15629550747
15629558682
15629564236
15629569424
15629573940
15629582241
15629589382
15629594692
15629600796
15629608120
15629610561
15629617824
15629621975
15629627773
15629631618
15629637356
15629643947
15629650783
15629654873
15629661098
15629667263
15629675014
15629683193
15629692165
15629698879
15629707790
15629714077
15629720607
15629729519
15629736049
15629744838
15629750393
15629760097
15629766384
15629775905
15629783412
15629789272
15629796840
15629804164
15629812892
15629820094
15629827724
15629834987
15629843410
15629850490
15629857326
15629866420
15629874538
15629882411
15629890224
15629899562
15629905543
15629913844
15629919704
15629929469
15629937953
15629944362
15629953151
15629960597
15629968410
15629976100
15629984462
15629991054
15629998866
15630005275
15630015345
15630022548
15630030787
15630037135
15630044337
15630051478
15630060267
15630066615
15630073878
15630082728
15630091883
15630095851
15630105250
15630111048
15630120387
15630126429
15630134730
15630143519
15630152186
15630158717
15630167628
15630175929
15630182398
15630190211
15630198023
15630204737
15630213160
15630221155
15630229151
15630235377
15630244715
15630250941
15630259180
15630266382
15630273340
15630282557
15630291163
15630298914
15630310083
15630318384
15630327601
15630334986
15630346521
15630350672
15630361719
15630369471
15630375757
15630382532
15630389124
15630395716
15630405603
15630412195
15630418543
15630424097
15630433069
15630438745
15630448450
15630455957
15630464502
15630468225
15630478113
15630481836
15630491541
15630496851
15630505640
15630514429
15630520837
15630527307
15630535913
15630539758
15630549951
15630555993
15630564783
15630571191
15630580774
15630586999
15630594812
15630602685
15630610437
15630616418
15630625390
15630632409
15630641076
15630648950
15630655114
15630665063
15630672814
15630682397
15630688317
15630696801
15630704492
15630712243
15630719811
15630727563
15630735253
15630742333
15630749963
15630759240
15630765466
15630774743
15630780724
15630790124
15630798119
15630805993
15630815514
15630822777
15630829919
15630839196
15630845238
15630853173
15630860802
15630868554
15630874108
15630883019
15630892296
15630900170
15630906762
15630914818
15630922753
15630928551
15630935692
15630944603
15630951195
15630960167
15630966210
15630974694
15630979454
15630987938
15630994957
15630999535
15631005516
15631009728
15631014794
15631021507
15631027123
15631034996
15631036827
15631046166
15631052452
15631057701
15631062767
15631068138
15631073875
15631079491
15631085289
15631094078
15631098289
15631102989
15631106590
15631109764
15631114708
15631118004
15631123375
15631131676
15631137962
15631145103
15631151329
15631157493
15631163292
15631170189
15631177330
15631181602
15631186912
15631191368
15631195579
15631199485
15631203514
15631209373
15631214256
15631217918
15631222007
15631226097
15631231041
15631235008
15631239402
15631244224
15631248863
15631253318
15631258018
15631262901
15631267051
15631271324
15631276512
15631282005
15631285057
15631290306
15631293724
15631298301
15631301963
15631307090
15631311485
15631316490
15631320701
15631324790
15631329124
15631333213
15631337364
15631341453
15631346580
15631351707
15631356895
15631360374
15631365501
15631368797
15631374229
15631379600
15631385581
15631387962
15631394492
15631399192
15631404075
15631409324
15631413596
15631417747
15631424827
15631427329
15631433921
15631438560
15631442710
15631446616
15631453574
15631459067
15631463706
15631469138
15631473411
15631477134
15631482871
15631487021
15631493186
15631498008
15631503684
15631510337
15631515708
15631520224
15631526938
15631531394
15631538413
15631544944
15631552329
15631556662
15631564536
15631567038
15631573935
15631577414
15631583823
15631589133
15631593344
15631598227
15631602439
15631607199
15631612631
15631617392
15631622946
15631628684
15631633383
15631638083
15631643454
15631648093
15631652976
15631658164
15631662497
15631668295
15631672995
15631678366
15631683188
15631687277
15631693381
15631697165
15631702414
15631706564
15631712973
15631716757
15631722616
15631726950
15631733725
15631738974
15631742087
15631753134
15631760824
15631765158
15631773703
15631777975
15631787436
15631794027
15631800558
15631803427
15631810751
15631816916
15631823080
15631827536
15631835104
15631839376
15631846518
15631852011
15631856527
15631863790
15631871115
15631875387
15631882345
15631887716
15631893453
15631899557
15631903524
15631908468
15631913290
15631917867
15631922628
15631927755
15631932760
15631960897
15631967733
15631972738
15631978536
15631983480
15631988180
15631993368
15631998739
15632001485
15632009420
15632017416
15632026021
15632033407
15632040121
15632047506
15632053853
15632057516
15632070089
15632078756
15632088216
15632094198
15632102803
15632111165
15632117208
15632124837
15632134664
15632144551
15632152425
15632158956
15632166097
15632173360
15632178792
15632185384
15632195149
15632202229
15632210652
15632217244
15632224507
15632230000
15632238240
15632244710
15632253072
15632260640
15632266560
15632272603
15632280659
15632287495
15632295918
15632299885
15632310750
15632315266
15632327351
15632331807
15632342122
15632347920
15632356343
15632362507
15632371907
15632378743
15632387959
15632395283
15632405964
15632412251
15632422688
15632429097
15632438984
15632447895
15632454670
15632461262
15632470906
15632477986
15632487263
15632494221
15632503803
15632511738
15632521504
15632529377
15632537312
15632544209
15632553425
15632560017
15632568684
15632576069
15632585102
15632591755
15632600727
15632607502
15632616962
15632623554
15632632160
15632638935
15632647846
15632656513
15632663959
15632672809
15632680256
15632689533
15632696857
15632705036
15632713276
15632720050
15632729084
15632738666
15632746418
15632753681
15632762287
15632772663
15632780475
15632787128
15632795795
15632802387
15632811237
15632817157
15632827289
15632836078
15632843707
15632852191
15632860248
15632869586
15632878131
15632885272
15632895709
15632902789
15632912677
15632919147
15632930133
15632936420
15632945880
15632952044
15632961139
15632968280
15632977435
15632983111
15632992022
15632997821
15633006488
15633012591
15633020831
15633029193
15633037677
15633043475
15633049700
15633058306
15633064349
15633073199
15633081378
15633089495
15633097125
15633104876
15633111041
15633119891
15633128008
15633136370
15633142535
15633149310
15633156451
15633164935
15633168963
15633180621
15633184588
15633194720
15633204302
15633211809
15633220354
15633227923
15633234698
15633244219
15633250689
15633259295
15633267962
15633274553
15633283220
15633291765
15633300310
15633305620
15633314959
15633323748
15633332842
15633339739
15633347246
15633355059
15633364641
15633368975
15633379045
15633383684
15633391069
15633396135
15633402300
15633409319
15633414140
15633420610
15633426836
15633431291
15633438005
15633442583
15633447405
15633454118
15633459734
15633466020
15633470903
15633476091
15633481096
15633487077
15633491716
15633496904
15633501726
15633508073
15633513994
15633518144
15633523698
15633529314
15633532670
15633540300
15633545549
15633550554
15633561418
15633567338
15633577897
15633587236
15633596940
15633606828
15633615068
15633625444
15633634294
15633642900
15633653092
15633663713
15633673478
15633682084
15633689530
15633697343
15633705216
15633714005
15633722306
15633731828
15633739030
15633746415
15633752702
15633761552
15633769364
15633777543
15633785661
15633794327
15633802018
15633810075
15633818375
15633824845
15633833146
15633838578
15633849076
15633856827
15633865189
15633873429
15633880631
15633888199
15633893509
15633904862
15633914078
15633921585
15633929276
15633937516
15633945267
15633951676
15633960587
15633970352
15633977799
15633984940
15633992874
15634000748
15634009171
15634017166
15634025955
15634031448
15634040054
15634045181
15634054520
15634062271
15634072647
15634081253
15634087112
15634096695
15634103714
15634111709
15634120560
15634128311
15634137100
15634142898
15634151993
15634158157
15634167679
15634174820
15634182449
15634190567
15634197952
15634206741
15634214981
15634221878
15634229019
15634238418
15634246658
15634251419
15634260574
15634267654
15634273757
15634281326
15634291213
15634299270
15634310012
15634320693
15634329360
15634338393
15634347549
15634356582
15634365981
15634374282
15634383132
15634391189
15634399062
15634406753
15634414626
15634422561
15634430739
15634438735
15634446853
15634455642
15634463515
15634472304
15634480056
15634487502
15634495681
15634503798
15634511184
15634520583
15634528640
15634535842
15634545668
15634552870
15634562697
15634570937
15634579054
15634585280
15634594557
15634600783
15634611586
15634617629
15634625807
15634635573
15634642592
15634650160
15634659560
15634667006
15634676649
15634683485
15634692763
15634700819
15634713454
15634724013
15634731581
15634741224
15634747511
15634756300
15634766981
15634775587
15634783705
15634789076
15634800489
15634808546
15634817396
15634825941
15634831068
15634838514
15634843641
15634852186
15634858961
15634864454
15634871778
15634879896
15634886366
15634892042
15634899305
15634905470
15634912306
15634917677
15634925489
15634932569
15634939954
15634945570
15634950880
15634959669
15634963026
15634972364
15634978284
15634984327
15634991224
15634997205
15635004529
15635011060
15635016126
15635022046
15635028516
15635039319
15635048719
15635056653
15635067457
15635077405
15635086377
15635092664
15635099317
15635106092
15635113172
15635119153
15635129163
15635134900
15635141004
15635147962
15635154798
15635159375
15635165357
15635173047
15635179517
15635184644
15635193616
15635198987
15635205518
15635212537
15635219678
15635229932
15635237256
15635243665
15635250562
15635256421
15635264111
15635270581
15635276746
15635282300
15635288464
15635299023
15635308484
15635315686
15635321911
15635328320
15635336072
15635341626
15635347424
15635355481
15635360669
15635368420
15635375439
15635383984
15635392346
15635398388
15635408032
15635415783
15635422863
15635430371
15635437268
15635444592
15635451367
15635458752
15635465954
15635472607
15635479138
15635485485
15635493481
15635498303
15635506237
15635514843
15635523022
15635529308
15635536205
15635541027
15635551525
15635559704
15635565868
15635574963
15635583446
15635589916
15635597851
15635604381
15635612072
15635618908
15635624950
15635635814
15635643566
15635650524
15635657360
15635667186
15635675975
15635686535
15635695873
15635707286
15635718212
15635724254
15635736644
15635742076
15635751415
15635758983
15635766368
15635773509
15635778026
15635788402
15635794322
15635801158
15635808055
15635820995
15635828868
15635839915
15635847545
15635854930
15635862926
15635872813
15635880199
15635888805
15635894298
15635905040
15635914134
15635922435
15635931102
15635937327
15635943492
15635953196
15635959117
15635968394
15635976207
15635986461
15635993296
15635999217
15636005320
15636009898
15636015574
15636022288
15636030345
15636035533
15636040415
15636045664
15636051219
15636055308
15636062510
15636065928
15636073741
15636076426
15636083323
15636088206
15636094859
15636099314
15636105723
15636109080
15636114756
15636118296
15636123484
15636128428
15636133067
15636137583
15636143198
15636148020
15636152354
15636158152
15636162363
15636169016
15636175059
15636181650
15636185923
15636194346
15636199656
15636206125
15636210337
15636216562
15636218088
15636226267
15636231821
15636237009
15636243174
15636248362
15636251597
15636257944
15636262095
15636271067
15636279490
15636286325
15636292917
15636298532
15636307260
15636312998
15636322824
15636325693
15636334116
15636340219
15636344675
15636347360
15636353708
15636356699
15636364633
15636369943
15636376901
15636381357
15636387216
15636391489
15636397775
15636404428
15636410349
15636416086
15636421701
15636426035
15636430185
15636436655
15636441232
15636448251
15636452646
15636460397
15636465341
15636472482
15636476633
15636483285
15636486948
15636494699
15636500497
15636506296
15636512704
15636519662
15636524606
15636531137
15636535898
15636543344
15636550058
15636556527
15636562326
15636568673
15636573800
15636580514
15636585336
15636590768
15636595590
15636602426
15636609506
15636615060
15636620492
15636626290
15636631356
15636637582
15636642404
15636649850
15636654794
15636661691
15636666696
15636673898
15636678842
15636683724
15636688546
15636694955
15636700143
15636706185
15636710946
15636717904
15636722665
15636730233
15636735970
15636742074
15636748605
15636755318
15636760384
15636765145
15636773446
15636774911
15636783456
15636787057
15636796944
15636803719
15636810311
15636814034
15636821969
15636826974
15636834054
15636839913
15636846932
15636856637
15636861153
15636867440
15636871163
15636880379
15636884713
15636895821
15636903206
15636908821
15636918038
15636926583
15636935799
15636944527
15636950752
15636958443
15636966927
15636973702
15636980782
15636988289
15636994454
15637002266
15637007576
15637012398
15637015755
15637024605
15637027779
15637033882
15637039253
15637045357
15637049934
15637057564
15637062324
15637067390
15637072151
15637078316
15637085457
15637089485
15637096077
15637101204
15637106819
15637112617
15637117317
15637121650
15637127449
15637134224
15637139778
15637142708
15637148933
15637155037
15637161628
15637166206
15637172126
15637178962
15637189338
15637197334
15637204353
15637213569
15637221870
15637230415
15637240669
15637247383
15637255500
15637263679
15637271980
15637280097
15637288642
15637296394
15637303596
15637312812
15637319648
15637331245
15637338996
15637346442
15637354865
15637362434
15637371955
15637379829
15637387580
15637396674
15637402900
15637411628
15637418891
15637425910
15637432563
15637441718
15637447761
15637456611
15637463385
15637470649
15637477485
15637485480
15637490058
15637502814
15637509040
15637515998
15637524543
15637531623
15637535834
15637547431
15637553107
15637563483
15637571601
15637580206
15637588324
15637594855
15637607489
15637615057
15637627020
15637637091
15637644293
15637653998
15637662360
15637673224
15637699896
15637706854
15637714056
15637720343
15637728277
15637736212
15637744513
15637752081
15637759710
15637767462
15637773382
15637781134
15637788946
15637796148
15637804144
15637811590
15637818060
15637825140
15637834234
15637839971
15637848760
15637853765
15637864874
15637872198
15637879888
15637885504
15637894537
15637900945
15637910101
15637917730
15637926763
15637932745
15637941534
15637947210
15637956121
15637963995
15637970953
15637979314
15637986272
15637990301
15638002935
15638011663
15638018682
15638024541
15638033391
15638040227
15638049993
15638056646
15638066655
15638073125
15638080449
15638089360
15638094854
15638104497
15638111821
15638121587
15638129094
15638137517
15638143560
15638152104
15638160405
15638166753
15638174870
15638182073
15638188542
15638197637
15638205327
15638212346
15638216374
15638225835
15638231816
15638242192
15638249821
15638257024
15638262944
15638271611
15638279668
15638287419
15638293400
15638301213
15638309270
15638317631
15638323430
15638332036
15638340092
15638345952
15638352665
15638360417
15638370854
15638377140
15638386906
15638390690
15638402104
15638410893
15638419926
15638429631
15638438298
15638447758
15638458134
15638466129
15638480106
15638487614
15638495854
15638505375
15638510990
15638519840
15638527409
15638534184
15638540165
15638550358
15638554325
15638565372
15638571476
15638578617
15638582828
15638588627
15638593815
15638599430
15638605594
15638611149
15638616092
15638623173
15638628544
15638634708
15638639347
15638646061
15638651004
15638658512
15638663944
15638670719
15638675724
15638681766
15638687625
15638692691
15638698246
15638703373
15638710758
15638716434
15638722965
15638727848
15638732791
15638739749
15638745243
15638751407
15638757450
15638762027
15638768131
15638771793
15638777591
15638779910
15638788272
15638792301
15638797305
15638803470
15638808597
15638813785
15638818668
15638822574
15638829715
15638834537
15638839481
15638845279
15638851688
15638855533
15638862430
15638866641
15638872195
15638877872
15638882632
15638887393
15638895267
15638901797
15638910281
15638913089
15638923282
15638927432
15638935306
15638940616
15638945498
15638952700
15638958255
15638962893
15638968570
15638972110
15638980471
15638985904
15638992678
15638996341
15639003421
15639006411
15639012759
15639017214
15639024539
15639031130
15639038027
15639047366
15639053103
15639060610
15639069399
15639075747
15639081912
15639087588
15639092959
15639098452
15639103945
15639108950
15639111575
15639118166
15639123843
15639128420
15639132876
15639138613
15639143435
15639148928
15639153139
15639159975
15639165469
15639169863
15639175478
15639181155
15639183352
15639192934
15639197573
15639204226
15639209658
15639213869
15639218935
15639224489
15639231264
15639237673
15639244448
15639249453
15639254335
15639259157
15639263674
15639269899
15639274538
15639280336
15639287966
15639294252
15639300051
15639307192
15639313112
15639319155
15639325075
15639331423
15639338442
15639343996
15639350588
15639356752
15639361635
15639369509
15639376100
15639381960
15639387514
15639393556
15639398622
15639405458
15639410463
15639414980
15639419923
15639426576
15639432375
15639437440
15639442628
15639449281
15639453371
15639460084
15639466249
15639472352
15639476198
15639483278
15639487916
15639493715
15639500673
15639505983
15639513002
15639516847
15639524659
15639527650
15639535219
15639538148
15639545411
15639549684
15639555299
15639560792
15639567750
15639572267
15639577638
15639584657
15639592836
15639598939
15639608094
15639615113
15639621949
15639626100
15639637147
15639643189
15639650086
15639657533
15639664247
15639669618
15639674012
15639679383
15639684083
15639687013
15639696290
15639699769
15639708741
15639712342
15639720155
15639727418
15639734498
15639742432
15639751405
15639758057
15639766297
15639772889
15639781129
15639788880
15639794739
15639801514
15639808777
15639818299
15639825318
15639831360
15639840394
15639847168
15639855408
15639859864
15639870118
15639876526
15639885132
15639892578
15639901429
15639910523
15639917053
15639925110
15639932984
15639940491
15639950257
15639957398
15639963501
15639972839
15639979614
15639989563
15639993958
15640003296
15640010376
15640020325
15640025085
15640034302
15640040771
15640049622
15640058044
15640065674
15640072388
15640080810
15640087280
15640095398
15640103454
15640111694
15640118774
15640126098
15640134582
15640141052
15640151062
15640160095
15640167724
15640172180
15640182190
15640189575
15640196899
15640205383
15640212585
15640218994
15640228210
15640234802
15640243896
15640250549
15640258483
15640265746
15640273742
15640282531
15640287048
15640296325
15640302917
15640312988
15640319701
15640326720
15640335021
15640343505
15640350402
15640356444
15640365417
15640370666
15640379211
15640385253
15640392760
15640400695
15640410155
15640416076
15640426085
15640433104
15640441954
15640448424
15640455626
15640463805
15640471434
15640478881
15640489562
15640497496
15640504210
15640510192
15640518492
15640524352
15640532897
15640540831
15640549132
15640554503
15640562377
15640567992
15640575865
15640583556
15640590453
15640598448
15640606993
15640612791
15640620787
15640627928
15640635802
15640641234
15640648863
15640657103
15640664732
15640670714
15640680296
15640686644
15640693541
15640701414
15640709471
15640718260
15640726744
15640733580
15640741697
15640749510
15640755308
15640763975
15640772215
15640778868
15640787657
15640794981
15640802793
15640809690
15640815733
15640824522
15640833494
15640840818
15640848020
15640856809
15640864622
15640872495
15640878416
15640887144
15640895384
15640902647
15640910825
15640919187
15640925535
15640931638
15640940733
15640948850
15640954832
15640961729
15640971006
15640978025
15640987607
15640992856
15641001768
15641008787
15641018186
15641024961
15641032773
15641040220
15641050046
15641057126
15641064023
15641070005
15641078794
15641084836
15641094602
15641101255
15641110776
15641115171
15641122617
15641126828
15641135373
15641141171
15641147824
15641156430
15641162656
15641167722
15641175168
15641179746
15641186948
15641191281
15641197995
15641203305
15641210019
15641213803
15641220090
15641223813
15641229428
15641233212
15641238461
15641242551
15641250119
15641252988
15641261044
15641266598
15641271725
15641275876
15641283444
15641289914
15641295651
15641300168
15641306454
15641311276
15641317380
15641323300
15641329037
15641335446
15641343075
15641347775
15641353512
15641359738
15641364560
15641370419
15641374936
15641381527
15641388729
15641393917
15641398678
15641404110
15641409786
15641413815
15641420590
15641428402
15641434017
15641439022
15641445187
15641449703
15641455685
15641462216
15641467953
15641473507
15641479611
15641485653
15641490841
15641497006
15641502743
15641508846
15641515194
15641520992
15641527401
15641531612
15641538692
15641542965
15641548275
15641552486
15641560909
15641566707
15641572140
15641577816
15641583797
15641590389
15641595028
15641600582
15641608333
15641616085
15641621822
15641628841
15641634639
15641639766
15641644344
15641650020
15641654964
15641663509
15641666378
15641674129
15641678768
15641686397
15641691158
15641697017
15641704097
15641710323
15641716976
15641725154
15641733028
15641739009
15641746822
15641753963
15641761287
15641767391
15641772762
15641779292
15641782100
15641788631
15641792659
15641800838
15641806575
15641812007
15641817317
15641823970
15641826961
15641834224
15641840022
15641845027
15641851131
15641856135
15641861262
15641867732
15641873530
15641878779
15641882869
15641888728
15641893245
15641900508
15641904414
15641910945
15641916804
15641921626
15641926692
15641931941
15641938594
15641943660
15641947810
15641953547
15641957759
15641964473
15641970393
15641974849
15641980830
15641987727
15641992427
15641999140
15642004756
15642010676
15642017207
15642021540
15642028742
15642033991
15642041010
15642045466
15642051936
15642055537
15642062678
15642065485
15642074519
15642081843
15642087458
15642090449
15642097712
15642102106
15642109126
15642115168
15642120844
15642127680
15642133662
15642139704
15642145197
15642149714
15642154475
15642161738
15642166071
15642173701
15642178278
15642185602
15642190424
15642195551
15642205317
15642211786
15642218683
15642224360
15642229670
15642236994
15642242243
15642249018
15642253962
15642260614
15642264704
15642272516
15642279779
15642284723
15642290277
15642296198
15642302545
15642309259
15642317987
15642321527
15642331964
15642338312
15642346369
15642353388
15642360040
15642368158
15642374323
15642379511
15642384088
15642388544
15642393488
15642398431
15642402887
15642409662
15642415704
15642419855
15642425531
15642429193
15642435052
15642440057
15642445367
15642449823
15642456659
15642462152
15642467462
15642470941
15642476251
15642480401
15642486200
15642491815
15642496881
15642502557
15642507379
15642512140
15642517144
15642522638
15642527276
15642533807
15642538141
15642544488
15642550225
15642555719
15642560113
15642567132
15642573358
15642580316
15642584649
15642591546
15642595636
15642601617
15642605828
15642612054
15642616937
15642627862
15642632195
15642639276
15642643365
15642649468
15642653375
15642660211
15642668206
15642674798
15642680657
15642685235
15642690728
15642696648
15642701409
15642706719
15642709466
15642718377
15642723626
15642728326
15642733330
15642739556
15642744134
15642749261
15642755059
15642761895
15642766717
15642772637
15642776482
15642782586
15642788628
15642794365
15642799859
15642805901
15642811455
15642816826
15642822319
15642827813
15642832146
15642838433
15642846306
15642854912
15642860955
15642867363
15642872795
15642882012
15642886406
15642897332
15642902336
15642909783
15642915215
15642920403
15642925286
15642930046
15642938042
15642942497
15642949150
15642953545
15642960320
15642964897
15642972588
15642976189
15642984489
15642987663
15642995476
15642998161
15643005486
15643010429
15643016106
15643022087
15643028068
15643032341
15643038139
15643042045
15643048088
15643053764
15643058952
15643066032
15643071892
15643077080
15643083061
15643089165
15643093742
15643100517
15643108207
15643112785
15643117546
15643124931
15643127678
15643136528
15643139579
15643147697
15643155815
15643162468
15643168083
15643172294
15643177116
15643182914
15643187126
15643194511
15643199516
15643206291
15643211479
15643217460
15643222648
15643227958
15643231742
15643238883
15643243644
15643250297
15643256400
15643261771
15643267509
15643271659
15643277213
15643284293
15643289054
15643295707
15643300834
15643306388
15643312736
15643318046
15643322806
15643328788
15643334525
15643340446
15643346183
15643350333
15643355949
15643361381
15643367179
15643372184
15643379081
15643384147
15643391227
15643395804
15643402152
15643409232
15643417045
15643424308
15643430045
15643435172
15643443595
15643449149
15643455497
15643461478
15643468680
15643474295
15643479972
15643485892
15643491141
15643496329
15643503714
15643508963
15643515616
15643522269
15643526785
15643531668
15643538260
15643543265
15643549124
15643554984
15643559256
15643565176
15643569632
15643575797
15643580679
15643586661
15643591116
15643595572
15643603262
15643608878
15643615164
15643620962
15643625906
15643630728
15643636465
15643643301
15643648367
15643653799
15643660391
15643666495
15643674185
15643679617
15643685110
15643690787
15643696646
15643703665
15643708975
15643712149
15643720999
15643724295
15643731985
15643735281
15643743032
15643749197
15643754690
15643760733
15643765432
15643772024
15643778616
15643784109
15643790579
15643796438
15643803091
15643808035
15643814016
15643820669
15643825491
15643830801
15643836843
15643842947
15643848867
15643853933
15643856924
15643865591
15643869253
15643877371
15643880544
15643887441
15643893850
15643899038
15643906301
15643912710
15643916921
15643928213
15643935171
15643947072
15643951650
15643959157
15643963430
15643970205
15643976125
15643982717
15643988088
15643995107
15643999624
15644006643
15644012136
15644019643
15644024770
15644032399
15644037160
15644045156
15644052236
15644058828
15644063344
15644070058
15644073110
15644081288
15644083608
15644090993
15644096242
15644100820
15644106374
15644110768
15644116200
15644121694
15644124379
15644132192
15644137746
15644142507
15644147328
15644153432
15644158620
15644163991
15644167714
15644173695
15644179250
15644184316
15644189809
15644194569
15644199757
15644205678
15644208607
15644216786
15644221669
15644226063
15644231435
15644237904
15644242604
15644248036
15644255665
15644261159
15644267567
15644272572
15644278065
15644283192
15644287953
15644296132
15644300465
15644307850
15644313588
15644319630
15644325551
15644330983
15644336415
15644341481
15644346913
15644352040
15644358998
15644365651
15644368336
15644376026
15644379994
15644386463
15644391896
15644396656
15644402455
15644408009
15644414479
15644419544
15644424061
15644430897
15644435902
15644442005
15644447193
15644453053
15644459828
15644465626
15644471363
15644476734
15644482410
15644486683
15644492725
15644498096
15644502247
15644508411
15644512867
15644520374
15644524464
15644530201
15644537098
15644544178
15644549000
15644555164
15644559070
15644564014
15644571888
15644578541
15644586658
15644592823
15644599720
15644606189
15644611805
15644618641
15644621875
15644629383
15644636280
15644642139
15644647998
15644652637
15644655567
15644663257
15644668384
15644673755
15644679798
15644687488
15644690357
15644698169
15644702808
15644708606
15644712696
15644719531
15644724170
15644730823
15644734790
15644741077
15644746753
15644755664
15644763721
15644772144
15644778980
15644786182
15644790149
15644796191
15644801990
15644806628
15644811450
15644817676
15644823535
15644829578
15644835193
15644840625
15644844775
15644850146
15644856189
15644861865
15644870349
15644876391
15644881762
15644886462
15644891833
15644896838
15644903125
15644907092
15644914477
15644919299
15644926318
15644930652
15644937793
15644943103
15644948596
15644953051
15644960925
15644968188
15644973803
15644976672
15644984484
15644989184
15644996142
15645002246
15645007556
15645014025
15645020556
15645024890
15645030993
15645037219
15645042529
15645047595
15645052905
15645058947
15645064806
15645071948
15645074755
15645082385
15645089220
15645094530
15645097521
15645106005
15645111803
15645117480
15645120898
15645129992
15645132921
15645139757
15645146288
15645153368
15645158495
15645165880
15645170885
15645182726
15645189135
15645194994
15645200548
15645206163
15645212023
15645220568
15645226610
15645231310
15645237230
15645243334
15645248888
15645254259
15645259691
15645265978
15645270494
15645277025
15645281542
15645287523
15645290392
15645298326
15645303575
15645309923
15645314195
15645318895
15645323046
15645330187
15645334276
15645341356
15645347765
15645354234
15645359850
15645365099
15645369798
15645376695
15645380785
15645386278
15645390794
15645398180
15645400682
15645409227
15645414354
15645419054
15645423448
15645429552
15645434312
15645442552
15645447435
15645453905
15645458909
15645465074
15645470933
15645476182
15645482896
15645488572
15645495164
15645500474
15645505784
15645511827
15645517625
15645523240
15645529100
15645532945
15645541795
15645544847
15645552476
15645558152
15645563340
15645567857
15645574876
15645580918
15645589097
15645592515
15645599595
15645605454
15645610948
15645617417
15645623338
15645629197
15645635240
15645641526
15645646653
15645652573
15645658616
15645663133
15645669907
15645674729
15645681016
15645686265
15645691392
15645695908
15645702256
15645707139
15645714524
15645721543
15645728074
15645733811
15645740281
15645745469
15645749924
15645755051
15645762742
15645769089
15645776902
15645781846
15645787888
15645795762
15645801865
15645807114
15645812790
15645820237
15645825852
15645832749
15645838120
15645842942
15645848923
15645853623
15645858506
15645863816
15645871506
15645876389
15645881333
15645885971
15645891953
15645895981
15645902085
15645909226
15645914292
15645918259
15645924851
15645929062
15645935227
15645941086
15645947067
15645953476
15645960800
15645965683
15645970200
15645976669
15645981247
15645988449
15645992661
15645999557
15646005722
15646012009
15646016342
15646021530
15646027145
15646034164
15646039718
15646045456
15646051376
15646057236
15646061569
15646068649
15646073044
15646079696
15646085861
15646091171
15646096298
15646103378
15646107895
15646113998
15646120468
15646125412
15646131271
15646136459
15646144271
15646149337
15646156539
15646160568
15646167282
15646173324
15646178329
15646183761
15646189132
15646196029
15646204574
15646209884
15646215194
15646220138
15646226180
15646231490
15646236678
15646243087
15646248763
15646253951
15646261092
15646265792
15646272018
15646276168
15646283370
15646289474
15646296127
15646302230
15646306808
15646312911
15646318771
15646322494
15646329085
15646334518
15646340438
15646347274
15646353560
15646360274
15646367476
15646371383
15646379744
15646387923
15646393966
15646399825
15646405623
15646410018
15646416304
15646419417
15646429000
15646434798
15646440657
15646443526
15646452925
15646455977
15646463668
15646469710
15646475203
15646481734
15646489424
15646493697
15646501265
15646503951
15646512618
15646517439
15646522749
15646530074
15646535506
15646541243
15646547163
15646553572
15646558455
15646564253
15646568404
15646575972
15646583113
15646587996
15646593001
15646600325
15646604292
15646611189
15646616865
15646622175
15646628706
15646634321
15646640608
15646646223
15646652083
15646657149
15646661665
15646668257
15646675825
15646681990
15646684981
15646692732
15646698042
15646705061
15646709578
15646714827
15646722517
15646728010
15646734907
15646740461
15646746382
15646751081
15646756880
15646761763
15646768293
15646776411
15646781477
15646787519
15646792951
15646798628
15646803755
15646808454
15646815534
15646821333
15646829084
15646833418
15646840559
15646844953
15646851606
15646856550
15646861555
15646868330
15646875288
15646880170
15646886762
15646890974
15646896589
15646902631
15646907392
15646912214
15646919721
15646925214
15646933210
15646939802
15646946699
15646956220
15646961896
15646970746
15646977826
15646985517
15646991071
15646996930
15647002057
15647008039
15647013715
15647020246
15647025251
15647031354
15647037458
15647042951
15647046125
15647053754
15647061078
15647066205
15647071210
15647077252
15647081708
15647087628
15647091413
15647098187
15647102582
15647108930
15647113690
15647119672
15647124310
15647131207
15647135053
15647142255
15647150250
15647156049
15647160565
15647165814
15647171246
15647176984
15647181256
15647187909
15647193280
15647201459
15647204449
15647211529
15647217511
15647223492
15647229779
15647234234
15647243085
15647249920
15647254925
15647261883
15647266949
15647273907
15647280926
15647287579
15647293133
15647299298
15647305767
15647310955
15647315899
15647322064
15647327923
15647333783
15647338604
15647345135
15647351544
15647356304
15647361431
15647366925
15647372723
15647378338
15647383648
15647390118
15647397564
15647400616
15647408673
15647412945
15647420635
15647425213
15647431561
15647438946
15647445477
15647450665
15647456158
15647462750
15647467632
15647473614
15647477886
15647485699
15647491436
15647497417
15647500286
15647509075
15647512127
15647520672
15647523662
15647531292
15647535869
15647543194
15647547649
15647555523
15647560406
15647568767
15647579326
15647586956
15647591778
15647598980
15647603985
15647610027
15647616924
15647622112
15647626140
15647633098
15647636455
15647644695
15647647502
15647655559
15647660991
15647665813
15647670452
15647675090
15647680522
15647688762
15647691448
15647698589
15647701457
15647709453
15647718120
15647722942
15647730510
15647735515
15647740947
15647746990
15647749858
15647757426
15647760234
15647766948
15647774089
15647779460
15647782085
15647790080
15647793071
15647801372
15647809733
15647815105
15647821757
15647827128
15647833415
15647837565
15647843913
15647848613
15647853374
15647860026
15647866069
15647870585
15647875651
15647881572
15647886454
15647893168
15647895793
15647903666
15647907695
15647916545
15647920817
15647927043
15647932841
15647938029
15647940654
15647948832
15647955912
15647961466
15647964518
15647972026
15647976542
15647983500
15647988566
15647994486
15648001261
15648007975
15648012553
15648019084
15648024027
15648031352
15648036234
15648042643
15648051127
15648056315
15648062785
15648067484
15648073283
15648079447
15648084696
15648090494
15648096476
15648102396
15648109476
15648113810
15648120707
15648127543
15648133402
15648139628
15648149454
15648156351
15648166361
15648178324
15648181864
15648192301
15648197367
15648204996
15648210184
15648217691
15648220865
15648229410
15648234659
15648241190
15648244242
15648251322
15648254923
15648262796
15648268961
15648274942
15648279398
15648286173
15648291605
15648297342
15648303568
15648308023
15648313516
15648320535
15648324869
15648330484
15648334879
15648340982
15648347635
15648354166
15648359110
15648365396
15648369791
15648374857
15648380472
15648386270
15648392557
15648399271
15648404764
15648412027
15648416604
15648422952
15648427408
15648433389
15648438455
15648445352
15648450357
15648456704
15648461404
15648467996
15648472268
15648477945
15648482644
15648489053
15648494363
15648499185
15648506631
15648512429
15648518350
15648524087
15648530374
15648536966
15648543313
15648548013
15648554116
15648559426
15648566445
15648571267
15648577249
15648584817
15648589700
15648595376
15648600869
15648605508
15648611245
15648618569
15648623330
15648631753
15648637795
15648643716
15648649270
15648655495
15648661721
15648666604
15648670754
15648679971
15648685525
15648691018
15648696816
15648702309
15648705666
15648713662
15648718484
15648725075
15648730874
15648737160
15648743569
15648748757
15648754311
15648760842
15648766823
15648770607
15648778786
15648785256
15648792336
15648795876
15648803749
15648808449
15648816567
15648821450
15648826332
15648831215
15648837319
15648842141
15648849221
15648853676
15648860146
15648864540
15648870827
15648876137
15648881447
15648887245
15648893227
15648899697
15648903725
15648911720
15648918984
15648925819
15648932045
15648936195
15648943337
15648946144
15648953224
15648958839
15648965614
15648971474
15648977272
15648983192
15648988197
15648992958
15648999794
15649004677
15649010231
15649018104
15649023720
15649029945
15649035133
15649038307
15649045875
15649050331
15649058204
15649064979
15649070778
15649077308
15649083046
15649088661
15649093971
15649097450
15649104835
15649110084
15649119239
15649122535
15649130653
15649135780
15649141029
15649146095
15649152870
15649158485
15649166236
15649171180
15649176063
15649181861
15649186805
15649192542
15649198036
15649206214
15649211768
15649218604
15649222877
15649228492
15649234046
15649239478
15649247230
15649251930
15649258521
15649264747
15649269080
15649274940
15649280860
15649286536
15649291724
15649299476
15649304725
15649312781
15649319678
15649325660
15649331214
15649338782
15649342994
15649354468
15649357886
15649365760
15649370521
15649380408
15649386207
15649393226
15649398352
15649406409
15649410376
15649416419
15649420630
15649427893
15649437842
15649445349
15649453406
15649464392
15649467505
15649474219
15649478369
15649485571
15649490210
15649496619
15649501868
15649508765
15649513342
15649520911
15649525061
15649530188
15649535498
