15650772861
15650778964
15650784396
15650788913
15650793613
15650798862
15650805514
15650811496
15650816989
15650822970
15650828464
15650834384
15650839755
15650846347
15650854159
15650860934
15650866610
15650873507
15650879306
15650885653
15650889987
15650896273
15650902072
15650907809
15650918063
15650925814
15650931918
15650939242
15650945956
15650953952
15650960360
15650966220
15650973422
15650981112
15650989352
15650995577
15651003085
15651009676
15651015658
15651025118
15651031649
15651037325
15651043002
15651052035
15651059298
15651065951
15651074984
15651082125
15651087435
15651094088
15651099459
15651105685
15651111788
15651118563
15651125582
15651131502
15651136507
15651142550
15651147799
15651152376
15651161165
15651167818
15651173006
15651179476
15651184786
15651189791
15651195162
15651202486
15651209688
15651216036
15651223299
15651230989
15651237276
15651247957
15651256502
15651267427
15651274935
15651285799
15651295503
15651301790
15651308809
15651314058
15651319368
15651327242
15651332430
15651337740
15651346284
15651354036
15651360262
15651365999
15651371675
15651377473
15651384004
15651389925
15651396028
15651402132
15651409273
15651414766
15651420503
15651426423
15651432588
15651438447
15651446504
15651452180
15651458955
15651466035
15651473054
15651480623
15651486909
15651494844
15651502473
15651508454
15651514009
15651522859
15651529817
15651536042
15651543305
15651549775
15651557405
15651563325
15651570649
15651577485
15651586396
15651592500
15651599824
15651606049
15651615144
15651621369
15651627595
15651634003
15651640839
15651648835
15651655000
15651660859
15651668244
15651673981
15651680329
15651687348
15651693452
15651699494
15651705659
15651713227
15651718903
15651726777
15651736542
15651742463
15651748078
15651754059
15651760712
15651766266
15651773652
15651780487
15651788178
15651795990
15651802460
15651810028
15651817292
15651824616
15651830719
15651840607
15651849823
15651857086
15651865814
15651874237
15651881378
15651886871
15651896271
15651903107
15651911224
15651917389
15651923615
15651930145
15651938263
15651945831
15651954010
15651960907
15651967255
15651974213
15651980499
15651987701
15651995697
15652001556
15652007660
15652015777
15652022247
15652027740
15652036712
15652043182
15652049164
15652054718
15652063385
15652070221
15652076141
15652084320
15652090606
15652097076
15652104522
15652110931
15652116729
15652124725
15652129791
15652137481
15652143218
15652149383
15652155548
15652162872
15652168914
15652175140
15652180694
15652187957
15652194549
15652200591
15652208160
15652214752
15652220855
15652227203
15652233611
15652239410
15652246001
15652251983
15652256988
15652261809
15652266875
15652271697
15652276580
15652282012
15652287627
15652294951
15652299163
15652304290
15652308806
15652313445
15652318816
15652324737
15652330657
15652336089
15652342437
15652348418
15652353545
15652358672
15652365142
15652368804
15652377166
15652381926
15652387664
15652393157
15652399321
15652404998
15652410064
15652415374
15652420134
15652425444
15652430327
15652436064
15652442290
15652449797
15652457488
15652462554
15652468840
15652474150
15652483306
15652486662
15652494109
15652500639
15652507597
15652512663
15652518523
15652523283
15652528410
15652532866
15652537260
15652542937
15652547881
15652553923
15652560332
15652565337
15652567595
15652573210
15652577849
15652583159
15652588591
15652594389
15652599821
15652604582
15652610136
15652614653
15652619353
15652624357
15652628813
15652634794
15652639799
15652644255
15652650053
15652654875
15652661284
15652665800
15652671904
15652678312
15652684904
15652690092
15652695951
15652700285
15652705595
15652708403
15652715849
15652721647
15652727262
15652732328
15652737394
15652742704
15652748136
15652751737
15652756498
15652762296
15652768705
15652774626
15652778593
15652783781
15652789518
15652795683
15652800565
15652806303
15652811613
15652815092
15652820829
15652825773
15652831754
15652836820
15652840360
15652845548
15652851224
15652858427
15652864164
15652868864
15652874662
15652880460
15652886137
15652890592
15652896329
15652901517
15652907316
15652913297
15652918973
15652923856
15652927457
15652933988
15652940885
15652947904
15652954068
15652959012
15652964689
15652971097
15652976835
15652980008
15652986112
15652991910
15652999234
15653005216
15653011808
15653017423
15653024076
15653029325
15653035306
15653041532
15653047513
15653052762
15653060880
15653068387
15653073880
15653078763
15653083341
15653088223
15653094449
15653098599
15653103116
15653108182
15653113004
15653117459
15653123013
15653129300
15653134610
15653138638
15653145108
15653150906
15653154385
15653160184
15653165250
15653172696
15653179288
15653185025
15653189969
15653195096
15653199612
15653205044
15653210599
15653215909
15653222622
15653228238
15653234829
15653239773
15653244046
15653249844
15653254239
15653259427
15653264370
15653270108
15653276761
15653283413
15653288784
15653293118
15653299160
15653305996
15653312466
15653316433
15653323391
15653327542
15653333584
15653340359
15653345730
15653352871
15653360562
15653367947
15653376064
15653384365
15653392361
15653400845
15653409023
15653416348
15653424160
15653432644
15653437893
15653447964
15653453213
15653460659
15653470302
15653477749
15653487820
15653495571
15653503383
15653510952
15653517666
15653525966
15653533779
15653542263
15653550136
15653558559
15653568325
15653576564
15653582424
15653591213
15653599392
15653608058
15653615444
15653622768
15653630458
15653640224
15653645656
15653656398
15653663844
15653671169
15653680446
15653687709
15653696742
15653704311
15653713710
15653721889
15653731899
15653740749
15653746486
15653754787
15653764369
15653772975
15653783229
15653790309
15653797694
15653804713
15653812343
15653819789
15653826014
15653833400
15653841823
15653849391
15653856776
15653864650
15653873133
15653880580
15653886622
15653894130
15653902674
15653910060
15653916285
15653923182
15653932032
15653938685
15653945582
15653952296
15653959132
15653968714
15653976771
15653983790
15653991908
15653998927
15654005885
15654013514
15654020167
15654028407
15654035548
15654041468
15654049219
15654057581
15654065150
15654071558
15654079066
15654086939
15654095545
15654104883
15654110193
15654117518
15654125940
15654133387
15654140955
15654149256
15654159754
15654167322
15654175013
15654183069
15654190760
15654196924
15654206812
15654213221
15654224817
15654231470
15654239221
15654247461
15654256494
15654261804
15654269251
15654277918
15654285486
15654293237
15654303735
15654315393
15654325647
15654332666
15654340967
15654349512
15654358179
15654366113
15654374109
15654381738
15654389917
15654396570
15654404870
15654412256
15654419702
15654431115
15654436242
15654443872
15654452722
15654460473
15654469445
15654477014
15654483850
15654492517
15654500817
15654511438
15654519189
15654528100
15654537133
15654545373
15654552758
15654561608
15654567590
15654576074
15654584557
15654593041
15654602013
15654609948
15654616296
15654623742
15654631554
15654639489
15654647057
15654654809
15654661462
15654668053
15654675072
15654684350
15654691796
15654698632
15654705712
15654713708
15654720849
15654727623
15654735192
15654742394
15654750084
15654759057
15654766503
15654773888
15654781578
15654788903
15654796593
15654801049
15654806298
15654812706
15654818993
15654824364
15654829674
15654833641
15654839989
15654846642
15654850670
15654857445
15654863182
15654870079
15654876305
15654879295
15654885216
15654891991
15654898216
15654902245
15654907677
15654913109
15654919518
15654925316
15654930504
15654936668
15654942223
15654947594
15654953941
15654960228
15654967369
15654972374
15654978966
15654984825
15654988914
15654994041
15655000999
15655006676
15655012657
15655017174
15655023033
15655026451
15655033043
15655039512
15655042381
15655054161
15655060875
15655065452
15655069603
15655078209
15655082359
15655091392
15655094444
15655103111
15655106773
15655113304
15655118309
15655124839
15655129234
15655137290
15655142967
15655149070
15655154380
15655158531
15655165489
15655172019
15655176658
15655183372
15655188987
15655195823
15655203330
15655206626
15655214927
15655220969
15655226524
15655233054
15655239402
15655245689
15655251792
15655257346
15655264609
15655269797
15655274436
15655279807
15655284751
15655291160
15655296897
15655302878
15655307944
15655313254
15655318564
15655325034
15655330161
15655336692
15655344626
15655351035
15655356894
15655363242
15655368064
15655373435
15655378928
15655384177
15655389548
15655393576
15655400168
15655404685
15655410117
15655414450
15655417624
15655424826
15655430136
15655436301
15655442893
15655447714
15655453574
15655457907
15655463095
15655468833
15655475241
15655479880
15655485373
15655490988
15655497153
15655502463
15655510764
15655517538
15655524008
15655530539
15655536276
15655540549
15655546835
15655553000
15655559103
15655563437
15655569052
15655575827
15655581564
15655586142
15655592306
15655599447
15655604635
15655608420
15655614645
15655621542
15655628927
15655634298
15655639914
15655645590
15655651388
15655658773
15655664999
15655669394
15655675009
15655681845
15655684957
15655693075
15655699545
15655704794
15655708944
15655714865
15655721884
15655729208
15655734579
15655738668
15655745443
15655752645
15655757162
15655763143
15655768820
15655775961
15655779745
15655787008
15655791952
15655798727
15655806234
15655812032
15655816793
15655824300
15655833944
15655838155
15655843587
15655851583
15655856161
15655861959
15655867879
15655872945
15655880575
15655885702
15655890523
15655896139
15655901571
15655907613
15655913411
15655918660
15655922811
15655929220
15655933858
15655939412
15655943990
15655949910
15655955648
15655961812
15655967122
15655972554
15655977437
15655981832
15655988668
15655992513
15655999654
15656007100
15656018819
15656024007
15656031148
15656040364
15656049092
15656056416
15656063985
15656073140
15656080830
15656086629
15656094930
15656104573
15656112874
15656121236
15656129109
15656135762
15656144185
15656153645
15656162007
15656169026
15656177266
15656186116
15656191365
15656199177
15656208516
15656215596
15656222004
15656231709
15656237141
15656246785
15656252888
15656260395
15656266987
15656274617
15656285054
15656291462
15656299275
15656307576
15656314472
15656322041
15656332600
15656346272
15656354511
15656362324
15656369831
15656377339
15656383869
15656391316
15656398274
15656405476
15656414143
15656421467
15656427937
15656435749
15656445026
15656453693
15656460895
15656469013
15656473530
15656482807
15656492756
15656500202
15656507953
15656515339
15656523945
15656532123
15656546344
15656554401
15656562336
15656570087
15656576984
15656583942
15656592548
15656600116
15656607501
15656617206
15656623371
15656631122
15656637103
15656643695
15656651752
15656657733
15656667133
15656674152
15656682758
15656688556
15656697223
15656703937
15656710345
15656721271
15656730304
15656736346
15656744891
15656750690
15656757587
15656765582
15656772540
15656779925
15656789081
15656796527
15656803424
15656811297
15656818499
15656829608
15656833697
15656843036
15656851336
15656857745
15656866534
15656873248
15656881121
15656888262
15656894610
15656902667
15656912127
15656917193
15656927142
15656932269
15656941119
15656948992
15656958819
15656964007
15656973773
15656979083
15656988848
15656995013
15657003069
15657011309
15657019915
15657027972
15657035418
15657043474
15657051653
15657059710
15657068499
15657076067
15657083513
15657091875
15657099932
15657109820
15657116900
15657125261
15657130510
15657141985
15657147478
15657157732
15657165789
15657173662
15657181841
15657189836
15657198259
15657206560
15657214983
15657223101
15657231890
15657240251
15657248491
15657257524
15657265886
15657275774
15657284013
15657292558
15657302690
15657310625
15657317522
15657328142
15657337236
15657343828
15657351396
15657362443
15657370073
15657378374
15657385454
15657392351
15657401323
15657405656
15657411882
15657417192
15657420366
15657425554
15657432451
15657437883
15657442582
15657447526
15657453325
15657458207
15657463884
15657470292
15657475358
15657480363
15657485063
15657490800
15657496049
15657500871
15657505570
15657510636
15657515946
15657522355
15657527238
15657533097
15657538102
15657543351
15657548295
15657553605
15657559220
15657563920
15657568620
15657573197
15657580094
15657586259
15657590653
15657597367
15657603715
15657609208
15657612687
15657621842
15657631547
15657641617
15657651688
15657662675
15657675614
15657683854
15657690690
15657695633
15657700699
15657705948
15657711136
15657716019
15657720902
15657725846
15657731156
15657735489
15657740189
15657743424
15657748246
15657752335
15657756974
15657762223
15657767594
15657772171
15657774796
15657780411
15657784500
15657787491
15657792923
15657797379
15657802445
15657807816
15657811722
15657817215
15657822098
15657826920
15657832718
15657839188
15657844986
15657850235
15657855728
15657862259
15657867935
15657872025
15657876297
15657881668
15657886246
15657891190
15657896133
15657900589
15657905594
15657911575
15657916519
15657921158
15657926590
15657930862
15657934463
15657938553
15657943924
15657948990
15657955398
15657961075
15657965225
15657970169
15657975174
15657980240
15657986587
15657990921
15657995376
15657999466
15658006119
15658010940
15658015213
15658021866
15658027786
15658033096
15658039993
15658045303
15658051529
15658057083
15658062027
15658067398
15658073013
15658078323
15658084243
15658089370
15658094192
15658099136
15658103897
15658107803
15658112991
15658118667
15658125747
15658130081
15658135574
15658140762
15658146499
15658153396
15658157302
15658164626
15658170547
15658176223
15658181228
15658185806
15658189773
15658197280
15658201614
15658208816
15658214675
15658219924
15658224746
15658230239
15658236587
15658240981
15658246291
15658250747
15658257339
15658263869
15658269973
15658275161
15658281386
15658286696
15658292129
15658298293
15658304824
15658311538
15658320205
15658324904
15658330764
15658336684
15658342299
15658348830
15658354995
15658361281
15658368483
15658376723
15658384230
15658390700
15658395766
15658402480
15658408644
15658415846
15658420729
15658424941
15658431838
15658441420
15658448134
15658454421
15658460097
15658468398
15658473280
15658481764
15658488234
15658494643
15658501845
15658511427
15658516249
15658524000
15658537367
15658543227
15658550490
15658558668
15658565809
15658573500
15658579603
15658586500
15658594618
15658599928
15658608168
15658615309
15658622267
15658630262
15658636854
15658643385
15658651991
15658662855
15658670912
15658679701
15658687452
15658695875
15658703321
15658709547
15658716932
15658723646
15658730848
15658739271
15658746839
15658754835
15658763868
15658770216
15658775892
15658784132
15658795057
15658801221
15658810743
15658818311
15658824049
15658831251
15658837110
15658844861
15658853406
15658860059
15658869764
15658876233
15658886121
15658893628
15658902051
15658909498
15658917554
15658926343
15658935315
15658943250
15658949720
15658957044
15658968457
15658976575
15658985608
15658992505
15659002332
15659008740
15659019605
15659027478
15659038403
15659045911
15659053052
15659062390
15659070142
15659076794
15659087354
15659094373
15659101819
15659108105
15659114941
15659121167
15659128369
15659136182
15659143994
15659150952
15659156567
15659164441
15659170361
15659177380
15659185986
15659192639
15659201977
15659208264
15659215161
15659222912
15659229748
15659237927
15659244824
15659251904
15659260693
15659266430
15659272961
15659281506
15659287609
15659294934
15659301037
15659312206
15659319103
15659326122
15659333386
15659340283
15659348278
15659355236
15659362316
15659371105
15659378124
15659384838
15659391613
15659400280
15659405468
15659414074
15659423412
15659428722
15659438061
15659446422
15659454052
15659461376
15659471874
15659479320
15659486645
15659493358
15659501964
15659512767
15659520031
15659526989
15659536083
15659544750
15659553661
15659561473
15659569835
15659578197
15659585155
15659592723
15659603343
15659611583
15659618480
15659628673
15659636791
15659644725
15659655162
15659662608
15659671825
15659680186
15659688182
15659696178
15659702403
15659706615
15659716014
15659720348
15659732799
15659737010
15659746776
15659753917
15659758433
15659767222
15659773448
15659780650
15659786509
15659791881
15659797496
15659802745
15659809092
15659814158
15659818797
15659823069
15659827830
15659832042
15659835826
15659841258
15659845652
15659849742
15659854319
15659859874
15659864146
15659868663
15659872813
15659878672
15659883067
15659888194
15659893260
15659899180
15659904856
15659908579
15659914012
15659918284
15659924388
15659929881
15659934397
15659939097
15659943614
15659949473
15659954173
15659958994
15659963145
15659970774
15659974375
15659980418
15659985117
15659989634
15659995982
15660000315
15660005625
15660012888
15660018565
15660023569
15660028818
15660033884
15660039194
15660044504
15660049692
15660055857
15660061716
15660067759
15660073618
15660079783
15660084849
15660090891
15660096201
15660103647
15660108774
15660114023
15660119822
15660124460
15660128305
15660135813
15660141306
15660147837
15660153513
15660157419
15660164133
15660169931
15660175608
15660180551
15660185068
15660188852
15660196909
15660202341
15660208689
15660214060
15660218637
15660224802
15660232248
15660237863
15660243234
15660249033
15660255808
15660260751
15660265817
15660270944
15660277902
15660283090
15660293954
15660299753
15660306039
15660312509
15660318491
15660323862
15660331491
15660339670
15660345773
15660350961
15660355295
15660360300
15660366037
15660371225
15660376535
15660381845
15660386789
15660391855
15660396615
15660402414
15660406503
15660413156
15660418527
15660423654
15660429757
15660434335
15660438668
15660443856
15660451425
15660456735
15660461679
15660466806
15660473947
15660477609
15660484017
15660489144
15660496224
15660501473
15660509225
15660514779
15660519601
15660524728
15660530282
15660537667
15660542733
15660548348
15660553964
15660559823
15660564828
15660570321
15660575814
15660581551
15660586495
15660591317
15660596444
15660603158
15660608895
15660614693
15660619820
15660623971
15660631478
15660636361
15660642586
15660648446
15660654610
15660661873
15660666390
15660671090
15660676400
15660682076
15660687081
15660692574
15660697579
15660703438
15660708199
15660713570
15660720833
15660724556
15660729317
15660735176
15660742257
15660747933
15660754647
15660760018
15660764778
15660770333
15660776070
15660782112
15660789620
15660796456
15660801644
15660807442
15660812508
15660817757
15660824288
15660832955
15660840218
15660848091
15660856392
15660865059
15660873421
15660885811
15660896431
15660906441
15660919014
15660936287
15660948921
15660955147
15660963569
15660971260
15660979378
15660987251
15660995552
15661002205
15661010078
15661018501
15661026191
15661034675
15661043037
15661048957
15661056892
15661065132
15661070564
15661080818
15661085884
15661095222
15661102729
15661111396
15661118476
15661125495
15661133308
15661139777
15661147346
15661155158
15661162971
15661171821
15661178535
15661186164
15661193549
15661200629
15661207709
15661215278
15661222480
15661229865
15661238898
15661245978
15661253547
15661260444
15661266730
15661276191
15661282233
15661290839
15661295661
15661304694
15661312018
15661320197
15661327277
15661335639
15661340949
15661348639
15661357489
15661364081
15661372809
15661379889
15661387274
15661395758
15661403510
15661408759
15661418341
15661425543
15661432929
15661440253
15661448309
15661455328
15661463263
15661471075
15661479315
15661486151
15661494025
15661500800
15661509650
15661516608
15661524298
15661531683
15661536688
15661544501
15661553778
15661561468
15661568365
15661577032
15661584478
15661590460
15661597906
15661606878
15661617743
15661631536
15661640203
15661650274
15661657171
15661666449
15661678839
15661690069
15661697027
15661709905
15661722906
15661733282
15661743780
15661752081
15661759100
15661767889
15661772649
15661779119
15661788030
15661793462
15661802496
15661809698
15661818487
15661825017
15661831975
15661838933
15661845159
15661852483
15661859075
15661866338
15661873174
15661881414
15661888433
15661895757
15661902044
15661909246
15661916448
15661924260
15661931890
15661936650
15661945806
15661950322
15661959111
15661965825
15661976811
15661981450
15661989812
15661996953
15662003118
15662009892
15662018254
15662025762
15662033757
15662040532
15662048650
15662055486
15662063603
15662069890
15662077885
15662084721
15662093632
15662102299
15662108525
15662115910
15662123784
15662131657
15662140324
15662148747
15662154057
15662161137
15662170292
15662177617
15662184208
15662189824
15662194401
15662200078
15662205510
15662210942
15662215397
15662220768
15662227055
15662231572
15662237797
15662243779
15662250737
15662254582
15662262638
15662269535
15662276066
15662284062
15662287724
15662295963
15662300541
15662308537
15662315067
15662321964
15662328617
15662336002
15662343083
15662349003
15662354740
15662359623
15662364933
15662371037
15662377079
15662383671
15662387272
15662393253
15662400883
15662405338
15662413029
15662421146
15662426212
15662432865
15662438724
15662443302
15662448063
15662455875
15662464176
15662471195
15662478031
15662485721
15662491703
15662498295
15662505069
15662513309
15662521244
15662528080
15662539066
15662546329
15662553653
15662561588
15662569522
15662576358
15662584293
15662591373
15662599430
15662609012
15662615909
15662624515
15662632022
15662639530
15662647037
15662655826
15662663699
15662671939
15662679324
15662688358
15662696109
15662702518
15662711856
15662718082
15662724429
15662733035
15662742007
15662750308
15662757510
15662764590
15662774722
15662782290
15662788455
15662797244
15662803470
15662812564
15662819522
15662826541
15662834414
15662841128
15662849063
15662856570
15662867068
15662875369
15662885440
15662893008
15662902957
15662909243
15662916995
15662926089
15662933413
15662943728
15662952090
15662959475
15662966311
15662975466
15662984438
15662996462
15663004397
15663011538
15663019961
15663029604
15663036501
15663044619
15663052126
15663062014
15663069704
15663076906
15663084658
15663092959
15663100832
15663108583
15663116701
15663125185
15663133059
15663141542
15663149721
15663156984
15663165346
15663174379
15663181703
15663190004
15663199098
15663205263
15663213564
15663219423
15663229494
15663236940
15663244753
15663252748
15663263307
15663270998
15663277956
15663284242
15663293581
15663301332
15663308900
15663316713
15663324953
15663333742
15663342103
15663350343
15663357789
15663365175
15663372499
15663380433
15663388185
15663396486
15663404481
15663413331
15663421449
15663427613
15663437318
15663444825
15663452760
15663459657
15663469544
15663479005
15663485597
15663492249
15663498658
15663508363
15663516541
15663522828
15663529359
15663537354
15663546937
15663553284
15663562379
15663569581
15663576722
15663585450
15663593262
15663602235
15663610718
15663619874
15663630982
15663639893
15663649476
15663661316
15663672364
15663680909
15663690003
15663699830
15663708802
15663720520
15663728516
15663741028
15663748841
15663760254
15663768372
15663777100
15663784424
15663790772
15663797424
15663805725
15663812561
15663819336
15663825379
15663831787
15663840027
15663847900
15663854919
15663860840
15663868286
15663874817
15663880676
15663887024
15663895264
15663903808
15663911011
15663916992
15663924805
15663931274
15663936828
15663942077
15663949585
15663957153
15663963012
15663968628
15663973633
15663981018
15663986816
15663994140
15664001709
15664007934
15664014099
15664020813
15664026977
15664033752
15664039978
15664047302
15664055542
15664061340
15664067504
15664074951
15664081970
15664088378
15664095947
15664104614
15664110168
15664118591
15664125854
15664132140
15664139220
15664148376
15664155090
15664161926
15664168639
15664176452
15664183227
15664189147
15664197631
15664204955
15664213561
15664220702
15664227172
15664234618
15664241759
15664248412
15664255431
15664264831
15664271727
15664278930
15664285460
15664292357
15664300353
15664307311
15664314635
15664322081
15664330687
15664337950
15664346068
15664354247
15664360839
15664369200
15664376464
15664382872
15664390746
15664398863
15664406493
15664412718
15664420287
15664428221
15664435973
15664444945
15664451537
15664459593
15664467650
15664474974
15664484129
15664489378
15664499327
15664505003
15664512999
15664521605
15664528685
15664537901
15664546263
15664552550
15664560545
15664568358
15664576536
15664584044
15664591063
15664598631
15664607298
15664614134
15664622313
15664630979
15664639341
15664647215
15664657164
15664663145
15664673399
15664680845
15664687925
15664696531
15664704893
15664713072
15664720457
15664728513
15664736204
15664744383
15664748838
15664759641
15664764951
15664777952
15664785032
15664791868
15664797117
15664806699
15664813657
15664822141
15664829770
15664839719
15664845212
15664853940
15664860410
15664868345
15664874753
15664883481
15664892148
15664901853
15664906919
15664916928
15664926511
15664932737
15664939267
15664947568
15664958127
15664965390
15664971250
15664976682
15664982358
15664988034
15664992917
15664999143
15665005551
15665012998
15665019101
15665024045
15665029660
15665035764
15665042538
15665049252
15665059262
15665064633
15665070615
15665076718
15665082394
15665087033
15665092709
15665097409
15665103329
15665108945
15665114010
15665118710
15665123654
15665129269
15665134701
15665140500
15665147580
15665153927
15665159787
15665164914
15665169308
15665176510
15665181881
15665187619
15665192929
15665198971
15665203854
15665209164
15665214047
15665219845
15665225277
15665231137
15665238705
15665245663
15665251278
15665256710
15665262997
15665269345
15665274838
15665281185
15665288937
15665296383
15665302853
15665308956
15665314571
15665321591
15665327572
15665333309
15665340694
15665348873
15665354305
15665358944
15665364315
15665370052
15665374935
15665381710
15665387936
15665393795
15665400997
15665404415
15665410885
15665417538
15665422298
15665428829
15665434688
15665442074
15665447567
15665451717
15665458431
15665464534
15665469967
15665475582
15665483333
15665488643
15665494747
15665499813
15665505428
15665511898
15665517757
15665525997
15665529354
15665535091
15665540706
15665548152
15665553462
15665559139
15665564815
15665568416
15665576412
15665581966
15665587337
15665592647
15665598201
15665603450
15665610103
15665615657
15665624568
15665630183
15665635127
15665640926
15665646358
15665652583
15665658748
15665664241
15665669124
15665675044
15665680720
15665687007
15665692439
15665698299
15665702998
15665708736
15665714656
15665722163
15665727595
15665732722
15665738154
15665742671
15665749202
15665754451
15665760615
15665766292
15665772334
15665778376
15665783625
15665788752
15665794001
15665801448
15665805598
15665811396
15665819819
15665825557
15665833552
15665839839
15665847102
15665851985
15665860407
15665865412
15665874873
15665882685
15665887019
15665892756
15665899348
15665905695
15665912043
15665917902
15665924189
15665929865
15665935053
15665940546
15665945063
15665948603
15665954829
15665959528
15665967341
15665974238
15665983210
15665990290
15665995783
15666002619
15666007807
15666012812
15666018427
15666022883
15666027399
15666033137
15666038019
15666042780
15666047419
15666054072
15666059504
15666064814
15666070124
15666075251
15666080317
15666086664
15666091181
15666097406
15666103083
15666108393
15666111872
15666118769
15666123651
15666127985
15666132502
15666136957
15666146173
15666153803
15666159601
15666166864
15666172663
15666179865
15666188165
15666195307
15666203058
15666210809
15666218439
15666225275
15666232416
15666239374
15666246881
15666256525
15666263666
15666271112
15666278558
15666284418
15666293451
15666298700
15666307550
15666316156
15666323358
15666330438
15666337335
15666346734
15666351434
15666360650
15666367730
15666376092
15666384637
15666391473
15666399347
15666406488
15666412286
15666418512
15666429437
15666437493
15666446466
15666454217
15666461297
15666468865
15666475091
15666481988
15666490045
15666497369
15666505975
15666513848
15666520806
15666528558
15666535088
15666543328
15666553948
15666562676
15666569756
15666577508
15666584588
15666592766
15666601800
15666609673
15666617913
15666626336
15666634636
15666641961
15666647210
15666655022
15666663445
15666672051
15666681389
15666689873
15666697869
15666706047
15666713860
15666719719
15666727349
15666735466
15666742363
15666750542
15666758049
15666765251
15666770745
15666778984
15666788139
15666796196
15666803581
15666811943
15666819267
15666827690
15666834587
15666842278
15666848320
15666857597
15666866386
15666875297
15666882500
15666890434
15666898002
15666905022
15666913994
15666921928
15666929619
15666935478
15666946464
15666951713
15666959160
15666969474
15666977043
15666984062
15666991813
15666998893
15667006706
15667014274
15667023429
15667030571
15667038383
15667046073
15667051811
15667060295
15667068229
15667075614
15667083915
15667092155
15667098808
15667106986
15667114127
15667122733
15667130546
15667138725
15667146415
15667154288
15667161857
15667167350
15667177116
15667182365
15667194083
15667199882
15667210197
15667217582
15667225333
15667234427
15667242423
15667251029
15667258841
15667268058
15667276175
15667283805
15667292472
15667300162
15667308280
15667315848
15667324088
15667331900
15667340689
15667348014
15667355582
15667362540
15667370719
15667378226
15667387869
15667395377
15667405081
15667413138
15667419424
15667429251
15667434439
15667444388
15667450919
15667458731
15667466666
15667475272
15667482291
15667489859
15667496817
15667504996
15667513113
15667518057
15667523123
15667528494
15667534048
15667539175
15667544058
15667549185
15667554495
15667560110
15667567801
15667573416
15667578421
15667583670
15667587881
15667594412
15667598379
15667605520
15667612661
15667618399
15667622671
15667627859
15667632742
15667637747
15667643606
15667648611
15667657949
15667664053
15667669180
15667674001
15667679128
15667685537
15667689749
15667695669
15667702871
15667708181
15667713491
15667718130
15667723806
15667729849
15667735769
15667741994
15667747488
15667753591
15667758901
15667765493
15667769155
15667775503
15667782827
15667788747
15667796071
15667801992
15667806997
15667812856
15667817861
15667825063
15667830312
15667836110
15667842214
15667847280
15667852407
15667859853
15667864492
15667870046
15667877919
15667883779
15667889699
15667895375
15667901479
15667905446
15667911306
15667917165
15667920156
15667928884
15667934621
15667941030
15667946889
15667952687
15667961415
15667967641
15667974294
15667981252
15667988210
15667999989
15668007436
15668012746
15668020009
15668025807
15668032643
15668037709
15668043141
15668048329
15668053273
15668058339
15668063405
15668068715
15668074086
15668078419
15668084706
15668090993
15668097218
15668102650
15668106984
15668112782
15668121327
15668126332
15668135243
15668144032
15668152394
15668161915
15668169362
15668175160
15668180287
15668186573
15668192982
15668199635
15668205555
15668212391
15668217640
15668223378
15668226918
15668233937
15668239552
15668246144
15668252064
15668259449
15668264942
15668269825
15668274891
15668281849
15668287769
15668293446
15668297840
15668305103
15668309437
15668316212
15668321705
15668327625
15668333118
15668338917
15668345081
15668351795
15668357593
15668363880
15668370411
15668375538
15668381458
15668386402
15668393787
15668397938
15668404651
15668410572
15668413990
15668421619
15668427295
15668432422
15668438892
15668445850
15668451954
15668457996
15668463977
15668469288
15668474170
15668481250
15668484851
15668492359
15668496631
15668503162
15668509815
15668515247
15668520923
15668527271
15668533313
15668539295
15668546619
15668552661
15668557056
15668563159
15668569812
15668576038
15668581287
15668587268
15668594898
15668600391
15668607044
15668612659
15668620227
15668624500
15668631152
15668638049
15668644153
15668650500
15668656909
15668665149
15668669055
15668676868
15668681995
15668687671
15668692981
15668698230
15668705859
15668710254
15668715869
15668722095
15668728320
15668734607
15668742114
15668750903
15668758227
15668764880
15668772387
15668778491
15668785815
15668794360
15668801379
15668807727
15668817309
15668823413
15668831103
15668838427
15668846545
15668853625
15668860766
15668868212
15668877184
15668882617
15668891528
15668898364
15668907641
15668914965
15668920336
15668929736
15668936755
15668946032
15668953661
15668961474
15668967150
15668974657
15668983080
15668990893
15668998400
15669006212
15669013720
15669020678
15669027636
15669034777
15669044298
15669051378
15669060534
15669067553
15669075060
15669082506
15669089098
15669096056
15669104845
15669111803
15669118395
15669125658
15669133409
15669141100
15669149034
15669155260
15669164842
15669170397
15669177904
15669185228
15669193712
15669203233
15669209642
15669218431
15669225938
15669230028
15669238939
15669249193
15669257982
15669266344
15669273485
15669281480
15669288255
15669295213
15669304185
15669311937
15669320543
15669328477
15669336229
15669345750
15669354478
15669365587
15669372483
15669380784
15669390916
15669397935
15669406297
15669414842
15669422715
15669428575
15669438829
15669446458
15669454881
15669462998
15669473435
15669480882
15669486436
15669496385
15669503648
15669511277
15669519273
15669525864
15669533982
15669541489
15669550095
15669557358
15669563523
15669572434
15669580552
15669587327
15669594346
15669603440
15669610886
15669618332
15669624131
15669633225
15669640366
15669648667
15669657090
15669665024
15669672104
15669678391
15669687790
15669693100
15669701767
15669709153
15669718796
15669726609
15669732102
15669740158
15669749375
15669755417
15669763352
15669772507
15669778977
15669787705
15669795883
15669803268
15669808762
15669819687
15669824936
15669833725
15669848434
15669857651
15669865402
15669871689
15669879074
15669886703
15669894272
15669902450
15669909836
15669917404
15669925827
15669932846
15669941147
15669949386
15669957992
15669967209
15669975265
15669984298
15669992233
15670002731
15670008468
15670018234
15670025009
15670032089
15670038803
15670047042
15670054122
15670062179
15670069503
15670075363
15670081405
15670089584
15670096420
15670105087
15670113509
15670119613
15670125961
15670133041
15670138717
15670143844
15670151107
15670160506
15670165633
15670173873
15670178878
15670184493
15670191146
15670197616
15670203170
15670209090
15670215011
15670220443
15670225020
15670229415
15670234054
15670237960
15670243697
15670247237
15670251937
15670256820
15670262435
15670268294
15670274031
15670278792
15670284407
15670290938
15670295027
15670301131
15670306258
15670311812
15670315291
15670322982
15670329756
15670334944
15670341353
15670347151
15670350691
15670355391
15670361128
15670366011
15670374251
15670378096
15670385298
15670388899
15670395552
15670401411
15670408064
15670415938
15670425825
15670436201
15670445784
15670454329
15670462508
15670469404
15670479109
15670488142
15670495650
15670501021
15670506331
15670511885
15670517561
15670522993
15670527571
15670534041
15670538923
15670545515
15670550764
15670554792
15670560530
15670564375
15670571821
15670577314
15670582319
15670587751
15670592817
15670597700
15670603193
15670608564
15670611433
15670617903
15670624250
15670628401
15670634077
15670640241
15670645124
15670650923
15670656965
15670663252
15670670271
15670676740
15670680769
15670689008
15670697065
15670701521
15670708845
15670715009
15670721052
15670726057
15670733259
15670737104
15670742536
15670748273
15670755170
15670764997
15670771467
15670775983
15670782209
15670786481
15670791791
15670796552
15670804242
15670812970
15670821393
15670827802
15670835553
15670843366
15670848066
15670853254
15670859052
15670863569
15670868879
15670873212
15670877973
15670882856
15670887311
15670892987
15670897870
15670903669
15670908124
15670912335
15670919232
15670923444
15670927411
15670933332
15670938825
15670942914
15670948895
15670953839
15670958356
15670963178
15670970563
15670975873
15670981000
15670986310
15670991864
15670996930
15671001141
15671007184
15671010175
15671017194
15671023480
15671029034
15671033978
15671038800
15671045209
15671050763
15671056805
15671062360
15671068402
15671073651
15671078168
15671083478
15671088482
15671092389
15671099408
15671104230
15671108929
15671117840
15671124554
15671129742
15671134015
15671138775
15671141705
15671152264
15671158184
15671163067
15671168805
15671174969
15671180035
15671183270
15671189434
15671197308
15671201580
15671207073
15671212933
15671217694
15671223370
15671227886
15671232769
15671239178
15671244000
15671248944
15671254009
15671258587
15671265667
15671273663
15671280682
15671293011
15671300335
15671308270
15671316631
15671327862
15671336956
15671343243
15671353985
15671360454
15671370769
15671379864
15671386761
15671392254
15671401958
15671409649
15671418743
15671426433
15671433452
15671441448
15671447551
15671456096
15671465740
15671471843
15671480205
15671486370
15671494243
15671502788
15671509807
15671516765
15671525554
15671532939
15671541301
15671549419
15671556499
15671565532
15671573283
15671578899
15671587138
15671594829
15671603069
15671612224
15671618938
15671625163
15671634257
15671640788
15671648051
15671655620
15671663188
15671671245
15671679301
15671685710
15671693034
15671698894
15671707072
15671711223
15671721721
15671731181
15671736247
15671745707
15671752421
15671759013
15671770488
15671778056
15671787577
15671796611
15671803508
15671812113
15671819804
15671827799
15671832377
15671839030
15671847025
15671854044
15671863139
15671872477
15671880839
15671888041
15671896464
15671903239
15671913126
15671919962
15671927653
15671935892
15671944010
15671951884
15671959879
15671966837
15671974161
15671983378
15671990702
15671997965
15672005228
15672013529
15672020060
15672028788
15672034037
15672044962
15672050333
15672059732
15672066080
15672074503
15672083353
15672090860
15672098184
15672107340
15672116312
15672124918
15672135477
15672142923
15672151163
15672158365
15672167032
15672176309
15672185526
15672192117
15672200723
15672209146
15672217630
15672225626
15672233743
15672241678
15672249673
15672257242
15672265787
15672273843
15672279886
15672289712
15672296975
15672303384
15672314981
15672322610
15672327920
15672338907
15672346353
15672355020
15672364419
15672372537
15672379251
15672387246
15672394570
15672400186
15672410684
15672419290
15672428384
15672436624
15672444741
15672452493
15672459817
15672467996
15672474465
15672482766
15672491189
15672498696
15672505654
15672513589
15672521645
15672530556
15672540322
15672547524
15672556435
15672564858
15672573586
15672581338
15672587380
15672595498
15672603127
15672610634
15672616982
15672624794
15672633095
15672641152
15672646706
15672651955
15672659096
15672667153
15672671120
15672677712
15672684059
15672689247
15672695168
15672703163
15672709694
15672715126
15672721474
15672727028
15672733742
15672740090
15672746681
15672751503
15672758034
15672764137
15672770180
15672774941
15672780922
15672786110
15672791725
15672799477
15672805824
15672810951
15672818214
15672825722
15672831642
15672837807
15672844704
15672849769
15672856666
15672863869
15672869667
15672874489
15672879738
15672884620
15672891029
15672898170
15672904518
15672909828
15672916420
15672921425
15672927223
15672932472
15672938636
15672946083
15672952186
15672956642
15672962684
15672968605
15672974525
15672981483
15672987953
15672992408
15672999305
15673006324
15673011756
15673017677
15673022621
15673029395
15673035682
15673039527
15673048072
15673053809
15673057716
15673063758
15673070777
15673076759
15673082618
15673088538
15673094215
15673101844
15673109229
15673114844
15673120826
15673125526
15673131995
15673138587
15673142432
15673148109
15673154395
15673161780
15673167457
15673173072
15673178626
15673184730
15673191504
15673195777
15673202064
15673209021
15673215125
15673220984
15673226111
15673231421
15673238135
15673244300
15673250769
15673256751
15673262366
15673269385
15673272742
15673279334
15673285071
15673292273
15673297766
15673303443
15673310279
15673315467
15673321143
15673327185
15673332923
15673338233
15673344275
15673350073
15673357337
15673363623
15673369544
15673376135
15673380164
15673386939
15673392615
15673401099
15673405615
15673414954
15673419043
15673426428
15673431799
15673438757
15673444861
15673453100
15673460791
15673466650
15673472815
15673481177
15673487341
15673491614
15673497473
15673505530
15673510656
15673515844
15673523352
15673529028
15673535070
15673541052
15673546057
15673554907
15673559668
15673565954
15673571936
15673577551
15673583105
15673588842
15673594152
15673600988
15673607824
15673613928
15673619665
15673626379
15673632910
15673636694
15673642492
15673650060
15673656347
15673661291
15673667761
15673673620
15673680395
15673687353
15673694067
15673699804
15673705907
15673711401
15673717565
15673724096
15673730321
15673733800
15673741308
15673747533
15673752782
15673760900
15673766271
15673772619
15673777501
15673783849
15673790624
15673795629
15673803014
15673807042
15673813817
15673819494
15673824559
15673830053
15673837804
15673844335
15673850011
15673855992
15673863195
15673868749
15673875829
15673882421
15673888646
15673894506
15673902440
15673909886
15673919164
15673927464
15673936376
15673941869
15673953160
15673960057
15673969640
15673978185
15673983922
15673995152
15674003575
15674012608
15674021031
15674029576
15674035985
15674044957
15674053624
15674062718
15674071202
15674079442
15674086705
15674095189
15674103245
15674108372
15674118016
15674123387
15674130528
15674139439
15674146763
15674154759
15674163365
15674173497
15674181248
15674186863
15674195835
15674204624
15674213169
15674220860
15674227207
15674236302
15674245274
15674250950
15674258152
15674267674
15674276218
15674286045
15674293186
15674301121
15674309910
15674317478
15674326633
15674334629
15674342808
15674351169
15674359226
15674367405
15674375644
15674384067
15674391819
15674399997
15674407810
15674416111
15674425815
15674431125
15674438755
15674447178
15674454807
15674462619
15674471225
15674480747
15674488803
15674496799
15674505100
15674513523
15674521823
15674528476
15674536838
15674546054
15674554355
15674562290
15674567600
15674575351
15674584750
15674592258
15674600619
15674609470
15674618014
15674626193
15674633456
15674641879
15674648837
15674657077
15674665500
15674673984
15674681186
15674688571
15674696628
15674706149
15674713595
15674720309
15674731112
15674738070
15674746188
15674753756
15674762118
15674770297
15674778475
15674785189
15674793917
15674802828
15674808138
15674818881
15674826571
15674834017
15674840914
15674853060
15674858553
15674866854
15674874606
15674883028
15674890292
15674898226
15674906405
15674911715
15674921725
15674927584
15674938265
15674943514
15674950838
15674960177
15674967989
15674978609
15674986117
15674992647
15675000826
15675008700
15675017428
15675025972
15675034822
15675042452
15675051485
15675060518
15675068819
15675076265
15675083956
15675094087
15675101717
15675109041
15675118135
15675125520
15675133272
15675141695
15675148897
15675159578
15675167574
15675175874
15675183687
15675192110
15675200227
15675208345
15675214571
15675222322
15675232271
15675240144
15675248872
15675256135
15675264192
15675272859
15675280366
15675287568
15675295991
15675303865
15675312593
15675321870
15675330110
15675336702
15675344941
15675351777
15675359651
15675368745
15675376191
15675384248
15675389680
15675396272
15675401948
15675409272
15675415009
15675421662
15675427888
15675431306
15675439179
15675446443
15675452485
15675458466
15675464875
15675467988
15675475739
15675481599
15675487153
15675493195
15675499055
15675502412
15675509431
15675517365
15675523286
15675527924
15675533723
15675540497
15675544282
15675551240
15675557282
15675564240
15675570527
15675573700
15675582551
15675588776
15675594941
15675599885
15675605683
15675611847
15675617585
15675624115
15675628449
15675634797
15675640412
15675646027
15675652008
15675657807
15675664765
15675672028
15675679047
15675684540
15675690277
15675698212
15675703766
15675709931
15675714691
15675722626
15675726959
15675733856
15675741058
15675749176
15675755707
15675763580
15675770844
15675777130
15675782806
15675789764
15675797028
15675802521
15675807892
15675813019
15675818268
15675826080
15675831818
15675836334
15675843170
15675849457
15675856293
15675861542
15675867218
15675873199
15675878875
15675884735
15675890960
15675896759
15675902313
15675907501
15675913299
15675918670
15675924957
15675931305
15675938324
15675943573
15675948883
15675954437
15675960784
15675966888
15675974334
15675980743
15675985687
15675991485
15675997894
15676003570
15676008819
15676014800
15676021148
15676027191
15676032195
15676036285
15676044586
15676050689
15676055755
15676059661
15676065704
15676074249
15676079925
15676084869
15676091216
15676097625
15676108367
15676115081
15676119353
15676126433
15676131499
15676137237
15676143462
15676148162
15676154449
15676160369
15676165618
15676173614
15676179900
15676185393
15676189055
15676196685
15676200591
15676206633
15676212798
15676219878
15676225249
15676231841
15676237273
15676246123
15676249968
15676254973
15676260527
15676266509
15676274382
15676278716
15676289580
15676298125
15676304717
15676311003
15676317961
15676324004
15676331511
15676335295
15676342680
15676350554
15676356047
15676360869
15676368193
15676373747
15676380766
15676388274
15676394743
15676400603
15676407927
15676412016
15676418913
15676424467
15676430449
15676435759
15676441008
15676447966
15676451811
15676457060
15676463286
15676470549
15676476896
15676482939
15676487455
15676492033
15676497526
15676502226
15676508452
15676513456
15676520720
15676524443
15676529692
15676535002
15676541410
15676546415
15676551664
15676556059
15676561247
15676566557
15676572111
15676577238
15676583036
15676588285
15676593229
15676597929
15676605314
15676610990
15676617338
15676622587
15676627531
15676631376
15676638639
15676644010
15676649076
15676655180
15676658659
15676665006
15676670255
15676676298
15676681303
15676685087
15676690946
15676698637
15676704618
15676710355
15676716154
15676720853
15676726224
15676731901
15676736539
15676743070
15676748441
15676754178
15676757779
15676764799
15676768705
15676774076
15676779569
15676785001
15676792447
15676798429
15676804044
15676809110
15676813627
15676819303
15676825162
15676829740
15676837613
15676843351
15676849393
15676853482
15676858976
15676864896
15676870267
15676873746
15676881131
15676886136
15676891812
15676896695
15676902005
15676907620
15676912686
15676917630
15676923978
15676928677
15676935269
15676941800
15676947293
15676951016
15676957852
15676964383
15676971097
15676974942
15676983914
15676989468
15676995267
15677000394
15677005276
15677010159
15677013577
15677021451
15677027432
15677034024
15677039822
15677045560
15677051175
15677056973
15677063077
15677071072
15677076565
15677082181
15677087918
15677091946
15677099087
15677103665
15677110012
15677116299
15677122219
15677126980
15677132290
15677138089
15677142178
15677149868
15677153530
15677159024
15677166104
15677172695
15677176174
15677181546
15677188626
15677192532
15677197659
15677203335
15677209011
15677215054
15677221523
15677225796
15677231655
15677237393
15677246365
15677251858
15677258572
15677265530
15677271572
15677276394
15677283657
15677290859
15677297146
15677303249
15677309597
15677315761
15677320583
15677326137
15677330715
15677336819
15677342373
15677349392
15677355251
15677361172
15677366726
15677371792
15677377346
15677382900
15677388393
15677392666
15677401027
15677407375
15677411037
15677418178
15677425014
15677430996
15677437954
15677442775
15677450588
15677456386
15677460109
15677467922
15677475368
15677482204
15677488307
15677492519
15677499477
15677506923
15677512905
15677516750
15677523769
15677530422
15677535549
15677541408
15677549220
15677554347
15677564540
15677573512
15677582729
15677590785
15677595485
15677602504
15677607082
15677611659
15677615871
15677620936
15677625453
15677629298
15677635890
15677642116
15677648158
15677653773
15677658778
15677663966
15677669887
15677675136
15677681117
15677686427
15677692164
15677698207
15677703334
15677708644
15677713282
15677719142
15677725673
15677732020
15677737269
15677743312
15677748194
15677753688
15677758876
15677764308
15677768763
15677774073
15677779933
15677785365
15677790858
15677796656
15677802271
15677808192
15677815333
15677820887
15677826869
15677831873
15677836512
15677841395
15677847926
15677853175
15677862025
15677867823
15677873011
15677879847
15677885157
15677890711
15677895960
15677902796
15677908167
15677915125
15677920801
15677925928
15677931422
15677937220
15677943140
15677950220
15677955652
15677960718
15677965906
15677971644
15677976526
15677983545
15677987085
15677994532
15678001917
15678007654
15678014246
15678020044
15678025293
15678031092
15678037928
15678044214
15678052515
15678057764
15678062036
15678068811
15678072473
15678079004
15678084864
15678092310
15678097803
15678102869
15678107141
15678116907
15678122217
15678129968
15678135828
15678142603
15678151575
15678155969
15678161279
15678166650
15678172083
15678179468
15678184961
15678189233
15678196252
15678202661
15678208032
15678213037
15678218774
15678224939
15678230676
15678235498
15678240564
15678246362
15678251550
15678256494
15678262231
15678265100
15678273828
15678279138
15678284082
15678286950
15678292810
15678297693
15678303552
15678311364
15678319055
15678326684
15678333093
15678338830
15678344567
15678349755
15678355126
15678358361
15678366357
15678371545
15678376611
15678381433
15678386132
15678393029
15678398644
15678405175
15678411889
15678418298
15678422631
15678432702
15678437341
15678442101
15678447350
15678454980
15678460473
15678466576
15678471520
15678476708
15678481835
15678489342
15678493798
15678499352
15678506798
15678512109
15678517602
15678523400
15678528710
15678534325
15678540063
15678545617
15678552025
15678559166
15678564965
15678570763
15678577111
15678580895
15678587792
15678593102
15678596093
15678604577
15678611290
15678616661
15678621483
15678626915
15678632714
15678638024
15678644249
15678652245
15678656700
15678661156
15678667015
15678672753
15678677757
15678684593
15678691246
15678698631
15678706078
15678711998
15678717308
15678723839
15678729088
15678735924
15678741112
15678746971
15678753319
15678758202
15678763451
15678767967
15678773216
15678781090
15678787193
15678792320
15678797813
15678803551
15678808922
15678814171
15678819420
15678826500
15678831322
15678836632
15678841575
15678847130
15678851890
15678856956
15678862266
15678869224
15678874901
15678879661
15678884422
15678889732
15678894432
15678900901
15678905784
15678910911
15678917625
15678922203
15678927024
15678932029
15678937400
15678943016
15678950157
15678955650
15678961631
15678968223
15678973350
15678977500
15678984092
15678988426
15678993553
15679000511
15679005882
15679010642
15679016258
15679024192
15679030418
15679035545
15679042442
15679049644
15679054954
15679060142
15679064780
15679070152
15679075339
15679080711
15679086631
15679094199
15679099570
15679104209
15679109641
15679115989
15679121848
15679127463
15679133567
15679139853
15679145652
15679151328
15679156821
15679161826
15679167869
15679173789
15679179404
15679185019
15679191733
15679198996
15679204245
15679207785
15679214438
15679219565
15679225547
15679231284
15679239035
15679246909
15679252402
15679257712
15679262656
15679269187
15679276450
15679281943
15679290366
15679296347
15679302085
15679310874
15679315451
15679321066
15679325644
15679330466
15679336997
15679343405
15679347922
15679351279
15679360556
15679366110
15679370993
15679375571
15679383078
15679388327
15679393820
15679398825
15679405966
15679409506
15679416037
15679420798
15679427206
15679432638
15679437094
15679441916
15679447043
15679453573
15679459067
15679464193
15679472189
15679477743
15679482443
15679487875
15679492819
15679499777
15679504232
15679509481
15679516012
15679521994
15679527548
15679533102
15679538412
15679544454
15679549337
15679554953
15679561911
15679568441
15679574301
15679580160
15679585836
15679591512
15679594503
15679601217
15679606161
15679614584
15679620138
15679627401
15679633077
15679637228
15679644369
15679648824
15679654989
15679661886
15679668233
15679673421
15679679037
15679685934
15679690450
15679697103
15679702596
15679705770
15679714254
15679719808
15679725606
15679730184
15679735128
15679740804
15679745626
15679751424
15679757955
15679765035
15679769918
15679775228
15679782064
15679787984
15679793538
15679801107
15679807027
15679813497
15679818624
15679825643
15679829854
15679835652
15679841329
15679846883
15679853108
15679860555
15679870748
15679876973
15679884175
15679890035
15679894856
15679902425
15679910848
15679914632
15679921590
15679927144
15679932454
15679937642
15679942342
15679949422
15679954732
15679962117
15679966328
15679973714
15679977254
15679983662
15679988301
15679994099
15680000081
15680007161
15680012593
15680018391
15680023945
15680029255
15680034688
15680039876
15680044697
15680050068
15680054890
15680060017
15680066304
15680071980
15680076252
15680081501
15680087971
15680093769
15680100056
15680105732
15680112019
15680120442
15680125569
15680131062
15680137471
15680143696
15680150044
15680155903
15680160908
15680165852
15680171101
15680177448
15680182942
15680190205
15680194355
15680201374
15680206501
15680211628
15680217121
15680222675
15680228657
15680235371
15680241352
15680246418
15680252094
15680257832
15680263874
15680269672
15680273273
15680280781
15680286396
15680289936
15680297016
15680302875
15680308552
15680314716
15680320698
15680327656
15680333759
15680340595
15680347004
15680351581
15680357197
15680364032
15680370685
15680375019
15680379169
15680388385
15680394916
15680400470
15680405658
15680410480
15680415790
15680420368
15680426899
15680435077
15680441364
15680446918
15680453022
15680457782
15680463947
15680470661
15680477619
15680480853
15680491779
15680497516
15680503253
15680509479
15680514423
15680519061
15680525104
15680530048
15680536762
15680541461
15680547199
15680552081
15680558551
15680563495
15680568134
15680573138
15680580402
15680584430
15680591266
15680596088
15680601398
15680605731
15680609881
15680615558
15680623065
15680628192
15680632770
15680638934
15680644366
15680648272
15680654437
15680660602
15680665606
15680671527
15680676532
15680681537
15680688495
15680692462
15680699298
15680704486
15680709979
15680715228
15680720965
15680726458
15680731219
15680735491
15680741595
15680746783
15680751971
15680759051
15680764727
15680770098
15680776263
15680781207
15680785296
15680791033
15680797320
15680802691
15680808306
15680813555
15680818926
15680824786
15680829424
15680834673
15680839556
15680845477
15680851397
15680856707
15680861529
15680867205
15680872576
15680878313
15680882586
15680888384
15680894976
15680901507
15680907305
15680913347
15680918474
15680922014
15680928057
15680934893
15680940813
15680946123
15680952471
15680958819
15680964922
15680968950
15680977007
15680983294
15680990252
15680998064
15681004412
15681010820
15681015398
15681021013
15681027788
15681031206
15681037432
15681045488
15681052202
15681057573
15681065019
15681071428
15681077654
15681084612
15681089800
15681095598
15681103716
15681110185
15681114702
15681120866
15681125444
15681131364
15681137468
15681141618
15681148210
15681154619
15681159929
15681164506
15681170976
15681174943
15681182512
15681185930
15681190874
15681197404
15681203813
15681208513
15681214128
15681219438
15681224748
15681229204
15681234636
15681240983
15681246965
15681252580
15681258317
15681263566
15681267961
15681274492
15681278825
15681285417
15681291337
15681297136
15681302018
15681308000
15681313249
15681317887
15681323381
15681329240
15681335099
15681341508
15681346818
15681352372
15681357987
15681363297
15681366960
15681372697
15681379899
15681385209
15681389237
15681395890
15681401689
15681407731
15681413224
15681418778
15681424394
15681430558
15681436112
15681441972
15681447526
15681452958
15681455949
15681462296
15681468095
15681474198
15681479935
15681486039
15681490800
15681495255
15681501359
15681506180
15681511613
15681518998
15681525162
15681531022
15681535172
15681542435
15681545853
15681551285
15681557450
15681562638
15681571488
15681575272
15681581437
15681586625
15681591507
15681597428
15681602860
15681608414
15681614212
15681619889
15681624588
15681630387
15681635514
15681639176
15681647476
15681651627
15681660416
15681666580
15681673905
15681678543
15681684281
15681689530
15681694595
15681698197
15681716629
15681720718
15681727982
15681735062
15681740006
15681745377
15681753860
15681759415
15681765091
15681769119
15681777054
15681781448
15681789017
15681794937
15681800552
15681807571
15681814041
15681820267
15681825882
15681831314
15681835953
15681842056
15681849624
15681854995
15681859817
15681865799
15681870498
15681875930
15681883804
15681889907
15681896316
15681903091
15681909011
15681915298
15681921951
15681927322
15681931961
15681937271
15681943862
15681949295
15681955276
15681959732
15681964919
15681970046
15681976211
15681979812
15681983474
15681990798
15681997268
15682003738
15682008926
15682013686
15682017776
15682024673
15682029800
15682035903
15682041274
15682046157
15682051467
15682055984
15682061599
15682066604
15682072890
15682079116
15682085342
15682091384
15682095046
15682100417
15682105666
15682113418
15682118300
15682124099
15682130568
15682137282
15682142043
15682147292
15682153212
15682160537
15682164992
15682174086
15682181655
15682187148
15682192092
15682198073
15682203017
15682209059
15682215834
15682221572
15682228041
15682235182
15682244338
15682251967
15682257521
15682266249
15682272231
15682279738
15682286269
15682292677
15682297682
15682304213
15682309645
15682315627
15682320082
15682325270
15682330092
15682336256
15682341566
15682345412
15682350722
15682356215
15682360365
15682363966
15682370558
15682375746
15682382399
15682387648
15682392226
15682397230
15682402785
15682408949
15682417738
15682423964
15682428785
15682434889
15682440870
15682446913
15682452955
15682457533
15682464430
15682471144
15682476576
15682481703
15682487440
15682492262
15682498976
15682503492
15682508375
15682516188
15682522108
15682527052
15682531629
15682538710
15682544020
15682548658
15682553358
15682559461
15682564894
15682570631
15682575208
15682580335
15682585584
15682590833
15682596266
15682602918
15682610120
15682614576
15682621107
15682625623
15682630750
15682636060
15682641065
15682646314
15682651868
15682657972
15682663648
15682668836
15682673902
15682679517
15682682813
15682692213
15682698743
15682704786
15682710462
15682715894
15682721570
15682726453
15682731458
15682734449
15682742566
15682750379
15682755750
15682758741
15682764661
15682770093
15682776380
15682782483
15682788709
15682796766
15682801648
15682807202
15682811902
15682817273
15682824231
15682831006
15682837842
15682843823
15682850598
15682855603
15682862866
15682868970
15682873609
15682877393
15682883557
15682888928
15682894360
15682899304
15682904065
15682908643
15682914624
15682920117
15682926404
15682932019
15682937390
15682942822
15682947644
15682953198
15682958752
15682963696
15682968701
15682975110
15682979626
15682984631
15682989148
15682994824
15682999829
15683005200
15683008984
15683016614
15683021924
15683027722
15683033276
15683038830
15683043713
15683047863
15683054944
15683063183
15683068676
15683073559
15683079174
15683083813
15683089550
15683095959
15683100048
15683105603
15683111645
15683116467
15683122204
15683128552
15683132092
15683137829
15683143261
15683149487
15683155102
15683161267
15683166027
15683171520
15683177868
15683182751
15683186779
15683192639
15683198437
15683204968
15683211132
15683215221
15683221081
15683225781
15683232128
15683235607
15683243237
15683249645
15683255077
15683258923
15683266369
15683271801
15683278088
15683282238
15683288708
15683294994
15683301830
15683309093
15683313732
15683323009
15683328747
15683335094
15683340954
15683348278
15683354076
15683359752
15683364574
15683374584
15683380382
15683384838
15683390026
15683397716
15683403637
15683410472
15683414928
15683422801
15683428966
15683435680
15683442516
15683447887
15683454418
15683457775
15683464366
15683469676
15683474620
15683481273
15683486766
15683492809
15683498729
15683503307
15683510509
15683515453
15683520519
