183749875363
183749879147
183749881955
183749885983
183749889523
183749893063
183749896176
183749900387
183749904110
183749908322
183749912533
183749915219
183749918942
183749922543
183749926571
183749929928
183749933590
183749937741
183749942013
183749945614
183749948483
183749951779
183749957699
183749961544
183749966061
183749969662
183749974972
183749980038
183749986935
183749992367
183749997372
183750002194
183750005306
183750010494
183750013607
183750018490
183750021969
183750027828
183750033016
183750038570
183750044247
183750049313
183750054806
183750059811
183750064022
183750069515
183750075741
183750079342
183750084774
183750089779
183750094295
183750098141
183750103451
183750107479
183750112484
183750116390
183750121578
183750125362
183750130306
183750136471
183750140255
183750144283
183750148800
183750152889
183750156734
183750160701
183750164791
183750170345
183750174678
183750177913
183750183284
183750187862
183750191097
183750196041
183750200008
183750205562
183750209529
183750214290
183750217769
183750222408
183750225887
183750230525
183750236141
183750239742
183750243282
183750248226
183750252315
183750256954
183750261104
183750265498
183750269832
183750274532
183750278743
183750282955
183750287776
183750291988
183750296199
183750299739
183750305354
183750310237
183750314265
183750319392
183750323055
183750328181
183750332820
183750336604
183750342403
183750346553
183750352107
183750356074
183750360225
183750365169
183750369258
183750375423
183750379695
183750384883
183750389277
183750392818
183750398555
183750402461
183750406795
183750412166
183750417048
183750420161
183750425410
183750428523
183750433772
183750438167
183750442500
183750447383
183750451838
183750456111
183750460261
183750464412
183750469539
183750473933
183750479609
183750484431
183750488581
183750493647
183750499263
183750503718
183750508662
183750513545
183750517695
183750522883
183750528437
183750532221
183750537959
183750543330
183750548640
183750552363
183750558222
183750563532
183750568842
183750572444
183750578425
183750581965
183750586970
183750591853
183750597163
183750602656
183750607966
183750612849
183750617670
183750622553
183750627009
183750631281
183750636408
183750643610
183750648615
183750653315
183750657893
183750662287
183750668207
183750672236
183750677241
183750682062
183750687922
183750692621
183750697870
183750702082
183750706415
183750711970
183750716242
183750720575
183750727411
183750733393
183750738215
183750742121
183750745600
183750752131
183750755976
183750761774
183750766596
183750771967
183750775507
183750781794
183750785517
183750790888
183750795649
183750800775
183750806024
183750811518
183750816400
183750820917
183750825800
183750830927
183750834101
183750839472
183750846002
183750850702
183750855707
183750860101
183750864496
183750870599
183750874994
183750879816
183750884515
183750890253
183750894464
183750900018
183750904291
183750908868
183750914423
183750919244
183750925104
183750929864
183750934686
183750940240
183750944269
183750950128
183750954034
183750961420
183750965570
183750971551
183750977777
183750981744
183750987237
183750991754
183750995660
183750999139
183751006463
183751012811
183751016839
183751020318
183751026483
183751030206
183751036371
183751041681
183751047479
183751051324
183751057733
183751061273
183751067254
183751071649
183751077447
183751082391
183751086419
183751091851
183751097833
183751102594
183751107110
183751111383
183751117120
183751121514
183751126153
183751133172
183751137811
183751142205
183751147332
183751151666
183751156976
183751161309
183751165765
183751171929
183751177667
183751182244
183751187066
183751191338
183751194817
183751201470
183751205254
183751210809
183751216363
183751221490
183751225335
183751230218
183751235406
183751241265
183751245354
183751252373
183751256219
183751262017
183751265984
183751272698
183751278252
183751282586
183751286370
183751293023
183751299859
183751304192
183751309319
183751313714
183751320550
183751325249
183751331414
183751336419
183751340996
183751347527
183751351555
183751357964
183751363518
183751367974
183751373650
183751377983
183751382134
183751388237
183751393059
183751397942
183751402397
183751407402
183751412346
183751417046
183751422722
183751426811
183751431999
183751437126
183751442192
183751447197
183751452080
183751456474
183751462700
183751466728
183751472649
183751476738
183751481621
183751486992
183751491631
183751498467
183751502495
183751507866
183751511650
183751516960
183751521660
183751526421
183751531120
183751535759
183751541923
183751546562
183751552116
183751555107
183751560844
183751565727
183751571525
183751577202
183751581718
183751586601
183751592277
183751595939
183751601616
183751607231
183751612663
183751617363
183751622795
183751627433
183751631584
183751637016
183751640922
183751646965
183751651847
183751656059
183751661552
183751665947
183751671928
183751681022
183751687309
183751696342
183751703849
183751712150
183751719902
183751729118
183751736869
183751746757
183751754569
183751764091
183751770194
183751777702
183751785819
183751791190
183751797233
183751808219
183751812858
183751817558
183751822379
183751827994
183751832328
183751836234
183751842216
183751845878
183751851432
183751857474
183751863090
183751874381
183751879203
183751887443
183751891837
183751900504
183751906852
183751912162
183751919059
183751924186
183751930350
183751936087
183751944571
183751948966
183751956290
183751963126
183751969352
183751973807
183751981192
183751987967
183751992728
183752000357
183752005240
183752012381
183752019217
183752025138
183752029837
183752037345
183752042166
183752050162
183752055472
183752061820
183752068656
183752074942
183752080191
183752087271
183752093131
183752099417
183752105154
183752113821
183752120047
183752127127
183752132803
183752140005
183752147879
183752154898
183752160513
183752168631
183752175894
183752182608
183752187979
183752195059
183752204153
183752209952
183752217032
183752223929
183752230581
183752237600
183752245108
183752252188
183752259207
183752267630
183752274466
183752281546
183752288443
183752294729
183752302420
183752308706
183752316152
183752323294
183752331533
183752337637
183752344045
183752351858
183752357839
183752365835
183752372549
183752378225
183752387930
183752393423
183752398611
183752407461
183752414785
183752422292
183752427480
183752435781
183752439992
183752448843
183752455739
183752463247
183752467580
183752476674
183752482961
183752489858
183752496633
183752504201
183752512197
183752519155
183752525319
183752532705
183752538259
183752546499
183752552236
183752560292
183752566030
183752571340
183752580983
183752586171
183752594899
183752600270
183752608510
183752615407
183752621511
183752628530
183752636098
183752643117
183752649892
183752656300
183752664357
183752670827
183752679982
183752686879
183752692494
183752698720
183752706471
183752712758
183752721120
183752727711
183752734730
183752740468
183752748463
183752756398
183752762746
183752768300
183752775990
183752783681
183752791554
183752797169
183752804493
183752811940
183752817067
183752824818
183752831776
183752839772
183752845082
183752854542
183752859852
183752867237
183752874256
183752881337
183752887501
183752895802
183752902333
183752909413
183752915699
183752923023
183752928517
183752936390
183752944325
183752949940
183752958058
183752964832
183752970509
183752978443
183752985951
183752991200
183752999561
183753004749
183753012806
183753019947
183753027882
183753033192
183753041004
183753048145
183753055469
183753062610
183753068714
183753075062
183753083607
183753088001
183753096607
183753102772
183753109974
183753115467
183753124073
183753129810
183753137806
183753145862
183753152637
183753158374
183753165821
183753173328
183753178577
183753187244
183753195362
183753202747
183753207935
183753215869
183753222949
183753230335
183753235828
183753243640
183753250598
183753256824
183753263049
183753272205
183753279407
183753285938
183753292102
183753299915
183753306506
183753314990
183753321277
183753328418
183753333911
183753341968
183753349963
183753355456
183753362903
183753370227
183753375659
183753384692
183753390429
183753395556
183753404406
183753408923
183753418689
183753426196
183753433703
183753438952
183753446276
183753453357
183753460498
183753467028
183753474902
183753481066
183753490588
183753494921
183753504260
183753511279
183753517077
183753523425
183753530627
183753538745
183753545641
183753551318
183753559313
183753564929
183753572741
183753578417
183753586962
183753594408
183753600451
183753607836
183753613024
183753621935
183753627306
183753635973
183753641161
183753650439
183753655749
183753663622
183753670763
183753676867
183753683153
183753690966
183753699877
183753707018
183753711962
183753720324
183753726732
183753733995
183753740343
183753748583
183753754747
183753762194
183753768175
183753776476
183753782091
183753787401
183753796312
183753803820
183753811266
183753816332
183753824693
183753832079
183753837694
183753844957
183753851549
183753858568
183753866380
183753873644
183753881578
183753888658
183753895372
183753902513
183753908617
183753914842
183753923204
183753929552
183753936998
183753943346
183753949876
183753957750
183753964830
183753970445
183753978013
183753985948
183753992112
183753997606
183754005601
183754013109
183754018419
183754027147
183754032457
183754040696
183754048021
183754055467
183754060777
183754068589
183754075730
183754081468
183754087754
183754096055
183754102220
183754109117
183754117356
183754124436
183754130723
183754139024
183754145310
183754153245
183754159409
183754166123
183754174119
183754182359
183754188767
183754196702
183754202988
183754210923
183754216416
183754224839
183754230881
183754236375
183754245591
183754250901
183754259690
183754265000
183754273301
183754278550
183754287034
183754294114
183754300095
183754307297
183754313889
183754320115
183754327866
183754334214
183754342575
183754348923
183754357163
183754363327
183754369431
183754377426
183754383530
183754391464
183754398117
183754403733
183754411911
183754417771
183754425888
183754433396
183754438584
183754446396
183754453537
183754461289
183754468796
183754477524
183754483322
183754491928
183754497910
183754507004
183754512253
183754520615
183754527939
183754535446
183754540878
183754548691
183754555832
183754562057
183754568344
183754577316
183754581772
183754590866
183754597030
183754604904
183754611252
183754618210
183754624130
183754633346
183754639022
183754646652
183754652328
183754660751
183754666244
183754671554
183754680954
183754686569
183754695480
183754700790
183754708419
183754715560
183754723495
183754730636
183754737777
183754742233
183754751388
183754758834
183754765304
183754771529
183754779708
183754785995
183754791671
183754799728
183754806869
183754812545
183754820357
183754826156
183754835006
183754840804
183754848983
183754854659
183754861739
183754872298
183754879378
183754885116
183754890243
183754898971
183754906966
183754912520
183754919906
183754928572
183754934127
183754942488
183754947982
183754955794
183754962874
183754969161
183754975508
183754983870
183754991072
183754996993
183755003279
183755010604
183755018721
183755025679
183755032149
183755039412
183755045149
183755053389
183755059126
183755066634
183755074019
183755079268
183755088728
183755094099
183755103438
183755108809
183755117171
183755122542
183755132246
183755137617
183755144758
183755151777
183755159346
183755166914
183755175276
183755182783
183755190657
183755197065
183755205549
183755212507
183755220442
183755228315
183755233992
183755240889
183755249311
183755254683
183755262983
183755269941
183755277388
183755282698
183755292707
183755297163
183755305708
183755312544
183755319074
183755325300
183755334333
183755341657
183755347639
183755353864
183755362470
183755369550
183755375532
183755381757
183755388593
183755397993
183755404768
183755410627
183755417951
183755423566
183755430585
183755437971
183755444379
183755450849
183755459699
183755465497
183755471845
183755479413
183755485822
183755493268
183755502179
183755509565
183755516584
183755524518
183755535199
183755543988
183755552533
183755560651
183755567975
183755573041
183755577069
183755582807
183755587873
183755592267
183755596662
183755601666
183755607282
183755612042
183755615277
183755620770
183755624066
183755630353
183755635175
183755639691
183755646100
183755650617
183755655560
183755659589
183755664899
183755669354
183755674054
183755678265
183755683392
183755688031
183755692242
183755697430
183755701520
183755705182
183755709759
183755715619
183755720135
183755724286
183755727887
183755732464
183755736554
183755741681
183755746136
183755751813
183755756207
183755760174
183755764447
183755768109
183755776105
183755784222
183755790448
183755793805
183755798748
183755803814
183755808026
183755811871
183755816632
183755822369
183755826764
183755831341
183755836346
183755840130
183755845868
183755850811
183755856121
183755861309
183755865033
183755871746
183755876080
183755881573
183755886578
183755892864
183755897930
183755901531
183755907086
183755911053
183755916424
183755922039
183755926006
183755930706
183755936504
183755941631
183755946636
183755952068
183755956890
183755961285
183755965740
183755971600
183755976055
183755980145
183755985821
183755989849
183755995953
183756000896
183756005962
183756010296
183756014019
183756018963
183756023113
183756029705
183756033916
183756039348
183756043926
183756049297
183756054729
183756061382
183756066204
183756070171
183756075237
183756080120
183756085308
183756090618
183756094585
183756100322
183756105205
183756109417
183756114971
183756119487
183756124248
183756129314
183756134136
183756140056
183756145671
183756149639
183756155071
183756159832
183756165203
183756171794
183756178081
183756181865
183756190044
183756193340
183756198955
183756203655
183756208476
183756213603
183756218547
183756221965
183756226604
183756231304
183756237102
183756238811
183756244975
183756248637
183756254375
183756258586
183756262187
183756267741
183756271587
183756276775
183756281047
183756286113
183756290080
183756293254
183756298808
183756303325
183756306865
183756311565
183756316875
183756321269
183756325420
183756331096
183756335124
183756338969
183756345805
183756349284
183756353984
183756358378
183756363994
183756367473
183756373271
183756377299
183756382670
183756387370
183756391276
183756397258
183756401286
183756404338
183756410991
183756414653
183756419780
183756425090
183756428386
183756434855
183756440470
183756443766
183756449931
183756453349
183756458476
183756462687
183756468302
183756474589
183756478678
183756482951
183756486674
183756490336
183756495402
183756499308
183756504252
183756509379
183756514750
183756519023
183756525065
183756528910
183756533549
183756538310
183756542643
183756549662
183756554728
183756558939
183756563578
183756567423
183756572794
183756576151
183756582438
183756587138
183756593424
183756596659
183756601725
183756605936
183756610941
183756614909
183756618571
183756623759
183756628214
183756632303
183756636576
183756642740
183756649637
183756654154
183756660196
183756664774
183756669108
183756676249
183756681070
183756685770
183756691691
183756696085
183756700358
183756706095
183756711039
183756716471
183756721842
183756726175
183756731058
183756736917
183756743265
183756747599
183756750833
183756757914
183756762308
183756767923
183756773477
183756777994
183756783426
183756788004
183756791361
183756799173
183756804178
183756809976
183756815958
183756820047
183756826334
183756831156
183756836466
183756841409
183756846597
183756850748
183756856058
183756860330
183756865945
183756870340
183756875345
183756879800
183756884927
183756890604
183756896402
183756900980
183756906106
183756910806
183756914712
183756919168
183756924600
183756930032
183756935342
183756940530
183756946206
183756950357
183756955484
183756960550
183756963846
183756970193
183756975992
183756981546
183756986612
183756992959
183756996377
183757001992
183757006814
183757011270
183757016458
183757021035
183757025735
183757030557
183757034341
183757040261
183757043801
183757049783
183757055398
183757059610
183757064553
183757068704
183757074014
183757080178
183757087258
183757094338
183757101113
183757105508
183757112039
183757116372
183757124307
183757129739
183757134499
183757138833
183757144753
183757150674
183757154824
183757160073
183757164407
183757171059
183757176186
183757181863
183757186867
183757194131
183757197854
183757204751
183757210610
183757215554
183757220498
183757226296
183757231057
183757237466
183757241067
183757247719
183757251565
183757258889
183757264626
183757269936
183757273354
183757278603
183757283303
183757288796
183757294228
183757300698
183757306313
183757310769
183757316811
183757321450
183757327065
183757331032
183757337136
183757342934
183757348976
183757353737
183757360146
183757364540
183757370095
183757374855
183757379738
183757385109
183757390236
183757394631
183757400002
183757404823
183757410561
183757416481
183757422463
183757428200
183757434242
183757437843
183757444496
183757450722
183757456276
183757461708
183757468117
183757474770
183757484047
183757492653
183757502235
183757507667
183757522011
183757529335
183757537392
183757545692
183757554909
183757562233
183757568275
183757576576
183757582985
183757590980
183757596290
183757605018
183757613319
183757618995
183757627418
183757632972
183757640907
183757648475
183757653541
183757663368
183757670143
183757675270
183757683448
183757688758
183757697364
183757702552
183757709632
183757716468
183757723060
183757730384
183757735877
183757744788
183757750587
183757760169
183757764869
183757774207
183757782081
183757788917
183757795692
183757805274
183757812049
183757818763
183757827613
183757834022
183757840247
183757848914
183757857093
183757862891
183757872596
183757878394
183757887183
183757893653
183757902198
183757910010
183757916053
183757923072
183757931006
183757938025
183757945594
183757954505
183757962012
183757968238
183757976477
183757982886
183757992285
183757998450
183758003272
183758014441
183758020667
183758028113
183758035010
183758044348
183758049109
183758056738
183758065405
183758071631
183758078711
183758087378
183758093542
183758101172
183758107580
183758116492
183758122717
183758128821
183758138952
183758145788
183758156592
183758163183
183758171728
183758177466
183758186865
183758192541
183758201880
183758209875
183758216650
183758224524
183758230322
183758236608
183758244116
183758252233
183758258764
183758266149
183758274389
183758280615
183758288488
183758296789
183758303137
183758308996
183758316320
183758322790
183758333593
183758343237
183758351171
183758358190
183758367590
183758373815
183758381811
183758390050
183758396154
183758405492
183758411718
183758419347
183758424596
183758433202
183758440648
183758445836
183758456273
183758462804
183758470128
183758476659
183758483129
183758489721
183758497777
183758507116
183758514257
183758521398
183758529943
183758536657
183758542272
183758549901
183758555699
183758561009
183758572423
183758578343
183758587743
183758593297
183758601659
183758608861
183758615025
183758622289
183758629796
183758638951
183758645238
183758651585
183758659032
183758666722
183758672337
183758679967
183758685521
183758693883
183758700413
183758708958
183758715977
183758722142
183758730015
183758735631
183758743626
183758749852
183758759434
183758765477
183758772801
183758780552
183758787755
183758794346
183758801609
183758808445
183758816746
183758823033
183758828953
183758837559
183758844822
183758850560
183758857029
183758864292
183758872898
183758880528
183758887303
183758895176
183758901035
183758906468
183758916233
183758923435
183758929173
183758938328
183758943943
183758952000
183758957981
183758963413
183758972568
183758981358
183758988193
183758997105
183759003330
183759013157
183759019443
183759025608
183759035679
183759041721
183759051060
183759060581
183759067112
183759075535
183759082004
183759090671
183759096958
183759106113
183759112827
183759121921
183759128452
183759137485
183759143894
183759152439
183759159214
183759165500
183759175876
183759183872
183759189792
183759198459
183759204501
183759213046
183759219028
183759227939
183759235141
183759244907
183759253757
183759260226
183759268649
183759274753
183759282809
183759290439
183759297641
183759304111
183759310336
183759318942
183759325229
183759332492
183759339145
183759347568
183759356723
183759364108
183759369845
183759378085
183759385898
183759391940
183759400607
183759405978
183759414401
183759421176
183759430697
183759435214
183759444613
183759452243
183759459140
183759467196
183759475863
183759483065
183759490634
183759497958
183759504061
183759512850
183759522433
183759531710
183759539095
183759545809
183759553072
183759560763
183759567904
183759576754
183759584017
183759590121
183759597079
183759603487
183759612276
183759618441
183759626559
183759634127
183759641573
183759648714
183759655306
183759662447
183759670626
183759675692
183759683931
183759692110
183759699373
183759706148
183759714205
183759722322
183759728914
183759736360
183759743013
183759753511
183759760469
183759767610
183759773897
183759783174
183759788729
183759797884
183759804903
183759814241
183759820772
183759826997
183759835603
183759842378
183759848299
183759856294
183759863374
183759871370
183759878328
183759885164
183759892183
183759898530
183759905488
183759913118
183759919343
183759928804
183759936250
183759943635
183759950899
183759956453
183759963655
183759969331
183759978914
183759985017
183759992036
183759998506
183760007295
183760013337
183760020662
183760030305
183760036592
183760043489
183760051301
183760058320
183760065766
183760071015
183760079194
183760084443
183760092988
183760100434
183760107942
183760113374
183760121674
183760128510
183760135896
183760142915
183760148530
183760155854
183760163728
183760171113
183760176545
183760183747
183760192414
183760200959
183760207307
183760214265
183760220612
183760229340
183760237763
183760248505
183760254792
183760263337
183760270478
183760277802
183760284882
183760290497
183760297150
183760305024
183760312775
183760319306
183760326508
183760334442
183760341584
183760348969
183760356537
183760362274
183760370026
183760375824
183760384735
183760390289
183760397308
183760404572
183760411102
183760419647
183760427887
183760433929
183760440765
183760447235
183760455902
183760462372
183760469879
183760475861
183760484100
183760490814
183760497528
183760504303
183760511200
183760518829
183760527496
183760532928
183760542206
183760547394
183760554535
183760561798
183760569244
183760574554
183760583221
183760588714
183760597625
183760606109
183760612762
183760621734
183760627838
183760637420
183760644744
183760652801
183760659759
183760668426
183760674652
183760681915
183760688201
183760696197
183760703948
183760712127
183760718963
183760725921
183760732940
183760738982
183760746124
183760754852
183760760406
183760768768
183760775848
183760783111
183760788299
183760797088
183760804656
183760810760
183760819488
183760827483
183760833159
183760840972
183760847503
183760853789
183760861846
183760868499
183760876922
183760883513
183760890715
183760897612
183760902800
183760909148
183760917632
183760924895
183760932524
183760939238
183760946685
183760951567
183760959380
183760966338
183760974089
183760981352
183760989531
183760996184
183761001860
183761010771
183761016875
183761023222
183761031645
183761038359
183761046294
183761052031
183761060027
183761067168
183761073515
183761080412
183761090849
183761096770
183761103850
183761111540
183761118620
183761126616
183761131804
183761140410
183761149748
183761156157
183761164641
183761172819
183761179472
183761188810
183761198088
183761207609
183761216825
183761228788
183761237516
183761246122
183761253874
183761261869
183761266508
183761272734
183761278532
183761282194
183761287077
183761290312
183761297025
183761300626
183761308317
183761312650
183761316801
183761322233
183761326933
183761332792
183761338834
183761343717
183761349027
183761354642
183761358244
183761362882
183761368314
183761373991
183761377958
183761383634
183761387784
183761394010
183761398832
183761402616
183761408414
183761412382
183761418302
183761423490
183761429593
183761434293
183761439054
183761444364
183761448758
183761452604
183761458219
183761464200
183761468961
183761473722
183761478482
183761483365
183761487577
183761492765
183761497953
183761504544
183761509732
183761514188
183761518277
183761524198
183761528836
183761535184
183761539579
183761544828
183761549954
183761556302
183761560880
183761566556
183761570218
183761577237
183761581754
183761589078
183761592130
183761598477
183761601590
183761607877
183761610928
183761617337
183761623074
183761627103
183761632718
183761637479
183761643460
183761647733
183761654568
183761659573
183761664578
183761668851
183761674710
183761679105
183761683682
183761688016
183761692776
183761699124
183761704129
183761709744
183761713467
183761718472
183761724331
183761727688
183761733426
183761738858
183761743069
183761747708
183761753201
183761756863
183761762722
183761766751
183761771939
183761777554
183761781887
183761787808
183761791714
183761796780
183761801236
183761807156
183761813565
183761818203
183761822903
183761828457
183761832608
183761837368
183761841763
183761846585
183761852444
183761856716
183761861355
183761865933
183761870632
183761874966
183761879727
183761885220
183761889126
183761895352
183761900356
183761905666
183761911709
183761917690
183761921780
183761926601
183761930996
183761938503
183761944119
183761947964
183761952541
183761957790
183761962734
183761967678
183761973476
183761978054
183761983913
183761990383
183761995571
183762000332
183762005764
183762010830
183762017849
183762022243
183762027859
183762032192
183762037929
183762044338
183762049404
183762056179
183762062160
183762067104
183762072048
183762076748
183762081874
183762086513
183762091335
183762096340
183762101711
183762106105
183762111354
183762116115
183762122097
183762125453
183762131252
183762136745
183762141689
183762146388
183762152065
183762157802
183762163783
183762169460
183762175929
183762182033
183762186672
183762192348
183762198695
183762204738
183762211452
183762215297
183762222194
183762227992
183762234889
183762238918
183762246730
183762250087
183762256129
183762261562
183762266261
183762272731
183762277553
183762283168
183762289027
183762293239
183762300014
183762306178
183762311976
183762320155
183762324794
183762330592
183762335170
183762340724
183762346644
183762351100
183762357753
183762362391
183762368190
183762372462
183762378199
183762383998
183762388270
183762394252
183762399073
183762403956
183762409816
183762414149
183762420436
183762425196
183762430628
183762435145
183762439967
183762447901
183762452357
183762458399
183762462916
183762470118
183762474818
183762480311
183762484644
183762491480
183762496119
183762501795
183762507777
183762512110
183762518092
183762522852
183762527796
183762534510
183762540919
183762545374
183762550135
183762556727
183762563319
183762567835
183762574305
183762580042
183762584986
183762590662
183762595484
183762599940
183762604944
183762610316
183762616175
183762621973
183762627039
183762633509
183762639063
183762644190
183762648829
183762653895
183762659693
183762665857
183762671106
183762675379
183762680017
183762686121
183762689600
183762695154
183762700953
183762706690
183762711878
183762716394
183762721338
183762727930
183762731592
183762737574
183762745264
183762751734
183762755884
183762763147
183762767237
183762772608
183762777735
183762782190
183762787073
183762793482
183762798853
183762803552
183762808984
183762813623
183762818811
183762823084
183762829248
183762833643
183762838586
183762843835
183762847498
183762853540
183762857690
183762863122
183762869226
183762873926
183762879419
183762883874
183762889673
183762893701
183762899011
183762903589
183762908533
183762915063
183762919519
183762925134
183762930871
183762937280
183762942163
183762948205
183762954004
183762958459
183762964319
183762968896
183762973108
183762980005
183762985254
183762990747
183762998315
183763002771
183763008935
183763014306
183763020105
183763023767
183763029626
183763037194
183763043237
183763048181
183763053430
183763057885
183763063745
183763068566
183763072900
183763079736
183763085046
183763090783
183763095605
183763100793
183763106286
183763111108
183763116723
183763120934
183763127160
183763132409
183763138390
183763144860
183763149926
183763154076
183763158898
183763164696
183763170983
183763175255
183763181786
183763185326
183763192345
183763197899
183763202782
183763208275
183763214257
183763221398
183763227624
183763232140
183763238244
183763243554
183763249291
183763252587
183763259667
183763264855
183763270714
183763275109
183763282006
183763287621
183763291954
183763295189
183763304100
183763309410
183763315453
183763322838
183763327355
183763333824
183763338341
183763346886
183763354027
183763364586
183763371605
183763378014
183763389366
183763397789
183763407494
183763414024
183763425621
183763435265
183763441734
183763450584
183763459373
183763467491
183763474937
183763485313
183763495018
183763502586
183763511253
183763519005
183763526329
183763533897
183763540306
183763548179
183763554832
183763564903
183763571739
183763577537
183763585044
183763592491
183763598167
183763605369
183763613060
183763620384
183763629905
183763635337
183763643394
183763650840
183763658348
183763665061
183763672630
183763679771
183763686790
183763693260
183763701011
183763709434
183763715293
183763721030
183763730003
183763736472
183763745689
183763751731
183763759544
183763767417
183763772788
183763780845
183763787986
183763795188
183763803245
183763808982
183763815574
183763823203
183763829612
183763837790
183763844199
183763851706
183763858237
183763867759
183763873923
183763882346
183763888022
183763893515
183763902732
183763908164
183763917685
183763923545
183763931052
183763938254
183763945700
183763952902
183763960227
183763965048
183763974204
183763981284
183763988974
183763995322
183764003195
183764008994
183764016135
183764023703
183764030966
183764037253
183764045920
183764053793
183764059958
183764067648
183764073019
183764081015
183764088156
183764094382
183764102499
183764110495
183764117758
183764123129
183764129477
183764137411
183764145529
183764151999
183764158590
183764168661
183764175375
183764182028
183764188070
183764196615
183764204122
183764210409
183764216574
183764224325
183764231771
183764239035
183764246237
183764253500
183764261007
183764265524
183764275106
183764283285
183764289633
183764295919
183764302694
183764308492
183764316671
183764322286
183764331075
183764337301
183764345541
183764353658
183764359090
183764367574
183764373128
183764380819
183764388082
183764394552
183764402791
183764409566
183764416158
183764423848
183764430196
183764438375
183764444845
183764452840
183764459920
183764469259
183764476033
183764482869
183764488485
183764496968
183764502767
183764511434
183764517354
183764526692
183764534566
183764537190
183764548116
183764553548
183764561360
183764569173
183764575581
183764584554
183764591512
183764597859
183764605733
183764612202
183764620137
183764626546
183764632771
183764641621
183764649800
183764656575
183764663777
183764669453
183764677388
183764683003
183764690327
183764697346
183764706685
183764714924
183764720540
183764728779
183764735981
183764742329
183764748921
183764756916
183764763936
183764770771
183764777241
183764786396
183764793110
183764800007
183764805744
183764814350
183764821064
183764829304
183764837910
183764843769
183764851338
183764856831
183764865986
183764871601
183764880207
183764885944
183764895344
183764900837
183764908222
183764914997
183764924458
183764929096
183764938312
183764945087
183764952961
183764959736
183764967121
183764973652
183764980732
183764986469
183764994221
183765002338
183765012043
183765019062
183765024555
183765032306
183765040302
183765046039
183765053425
183765061298
183765070453
183765076374
183765083759
183765090656
183765097980
183765104816
183765111957
183765119220
183765125141
183765135211
183765141559
183765149127
183765155475
183765163288
183765169269
183765176654
183765184589
183765192096
183765197894
183765205463
183765213092
183765218829
183765226581
183765233661
183765240375
183765248737
183765255939
183765262408
183765269061
183765274737
183765283343
183765289142
183765297320
183765303485
183765312030
183765318133
183765323565
183765332415
183765339618
183765347064
183765351703
183765360492
183765368243
183765374896
183765381243
183765387896
183765394305
183765403155
183765409442
183765418475
183765427203
183765433245
183765440997
183765448870
183765455279
183765461932
183765469805
183765477068
183765486224
183765493853
183765500384
183765509783
183765516192
183765524493
183765530474
183765537676
183765545489
183765554339
183765560015
183765568743
183765575762
183765583147
183765591997
183765599383
183765605852
183765614092
183765620867
183765628679
183765635088
183765643450
183765650408
183765657427
183765664812
183765671038
183765676958
183765690142
183765696917
183765705461
183765708391
183765719499
183765724321
183765734026
183765741960
183765749712
183765758196
183765765581
183765772783
183765779192
183765785539
183765794084
183765802263
183765808550
183765815691
183765824174
183765831132
183765838457
183765846452
183765852617
183765861040
183765867265
183765875993
183765884660
183765891679
183765900163
183765906022
183765913957
183765921953
183765929643
183765936723
183765943315
183765950029
183765958635
183765964921
183765974137
183765980973
183765988847
183765995072
183766003251
183766009599
183766017167
183766024797
183766034074
183766040360
183766046586
183766054460
183766063188
183766069108
183766077836
183766083329
183766093278
183766100297
183766107682
183766114823
183766121598
183766129838
183766137772
183766144486
183766151261
183766160355
183766168351
183766175980
183766183304
183766189774
183766198868
183766201920
183766213395
183766221390
183766228104
183766236649
183766243058
183766251297
183766257706
183766264847
183766274002
183766282242
183766291092
183766298172
183766304886
183766311295
183766317154
183766327713
183766333756
183766343277
183766352249
183766359207
183766367569
183766374954
183766382950
183766388687
183766397965
183766406021
183766413773
183766423538
183766430618
183766437210
183766443558
183766453689
183766460037
183766468704
183766475296
183766483597
183766490494
183766497513
183766506729
183766513748
183766521499
183766527786
183766534866
183766543411
183766552139
183766558975
183766565139
183766574661
183766582717
183766589370
183766596450
183766604507
183766613296
183766622390
183766628860
183766635513
183766643875
183766649490
183766656936
183766663467
183766671340
183766679702
183766685561
183766691238
183766700393
183766705703
183766714797
183766720534
183766728835
183766734939
183766745254
183766750320
183766759414
183766766006
183766772109
183766780532
183766787124
183766793654
183766799209
183766808242
183766813735
183766822219
183766829970
183766836074
183766843520
183766850661
183766858901
183766865676
183766872145
183766879348
183766885573
183766892836
183766898574
183766906447
183766912429
183766920363
183766927931
183766933486
183766941908
183766946547
183766955519
183766962904
183766968886
183766976027
183766983351
183766989638
183766998305
183767004897
183767011305
183767018813
183767025282
183767033339
183767038954
183767047255
183767055006
183767061537
183767069227
183767077650
183767082777
183767092116
183767099684
183767106825
183767113051
183767121718
183767130385
183767136244
183767143812
183767151808
183767160414
183767169508
183767176710
183767184584
183767191603
183767198500
183767209852
183767219740
183767227125
183767237501
183767248426
183767261793
183767270948
183767280164
183767285780
183767292371
183767298475
183767303053
183767307935
183767313245
183767318128
183767324110
183767328321
183767334180
183767339918
183767346143
183767351331
183767356763
183767361585
183767367017
183767370984
183767376722
183767384290
183767389051
183767394056
183767399610
183767404371
183767411207
183767416089
183767421216
183767428479
183767433912
183767438123
183767444532
183767448499
183767453931
183767459424
183767465100
183767470533
183767476270
183767480420
183767485486
183767491223
183767497327
183767501477
183767507764
183767511731
183767518323
183767523023
183767529126
183767533521
183767539624
183767545178
183767550061
183767556226
183767562512
183767568433
183767572705
183767578076
183767584119
183767588147
183767594006
183767601209
183767607007
183767610547
183767616589
183767621655
183767625806
183767631238
183767636853
183767643384
183767648022
183767653638
183767658276
183767663891
183767668591
183767674512
183767681897
183767688855
183767692700
183767697949
183767703320
183767707776
183767712903
183767719311
183767725232
183767729565
183767735058
183767740429
183767745861
183767750073
183767755810
183767760327
183767767956
183767771984
183767777294
183767781262
183767785839
183767790051
183767796765
183767803479
183767807446
183767812084
183767817700
183767822827
183767828503
183767833752
183767839001
183767845837
183767851513
183767855663
183767861218
183767866833
183767872326
183767877880
183767884045
183767890026
183767894177
183767899731
183767905651
183767909863
183767915539
183767920971
183767926037
183767932568
183767937267
183767942821
183767947338
183767952404
183767956920
183767962780
183767969494
183767976574
183767981151
183767988231
183767992260
183767997692
183768003185
183768007824
183768014171
183768019970
183768025280
183768031078
183768036388
183768040722
183768045360
183768052257
183768059093
183768065136
183768069835
183768074718
183768079296
183768085460
183768089794
183768095470
183768102001
183768107921
183768112316
183768116527
183768123424
183768127696
183768133922
183768139171
183768144298
183768150646
183768155895
183768160838
183768167003
183768171642
183768176708
183768181224
183768187511
183768192516
183768199474
183768206004
183768210704
183768215038
183768221385
183768225719
183768232066
183768236644
183768240062
183768248118
183768252025
183768258250
183768263621
183768269176
183768274425
183768279307
183768285472
183768290660
183768295360
183768300914
183768305125
183768311595
183768315806
183768321544
183768326243
183768333384
183768338023
183768343943
183768348216
183768353953
183768359690
183768363841
183768369883
183768376414
183768381236
183768386790
183768392955
183768398387
183768402903
183768407603
183768412608
183768417430
183768424082
183768429820
183768436167
183768442088
183768448741
183768453623
183768460703
183768465952
183768472849
183768476450
183768482615
183768488108
183768492564
183768497446
183768503733
183768510142
183768516062
183768521372
183768526987
183768531992
183768535899
183768543162
183768548044
183768555247
183768559885
183768566538
183768571421
183768577769
183768583872
183768589182
183768595835
183768600901
183768608652
183768613596
183768618052
183768624888
183768630442
183768635202
183768640146
183768645395
183768651865
183768657114
183768662912
183768669809
183768673960
183768682260
183768687448
183768694345
183768699228
183768707651
183768713083
183768717111
183768723459
183768727976
183768734262
183768739023
183768744699
183768749399
183768755319
183768759958
183768766794
183768771860
183768776804
183768781809
183768789011
183768794077
183768799326
183768805856
183768811105
183768815988
183768821359
183768829416
183768834604
183768839365
183768844552
183768848886
183768855112
183768859628
183768865365
183768872140
183768876535
183768882882
183768888131
183768892465
183768897348
183768902658
183768908395
183768914010
183768919076
183768927011
183768932809
183768936837
183768942208
183768947396
183768951364
183768956613
183768961862
183768968270
183768972116
183768977731
183768982553
183768986886
183768991830
183768996835
183769004464
183769009469
183769014779
183769020028
183769024545
183769029855
183769035165
183769040109
183769045052
183769050668
183769055367
183769060250
183769065987
183769070687
183769074593
183769078378
183769084908
183769091012
183769095773
183769101998
183769105965
183769111642
183769116097
183769121224
183769126534
183769131966
183769137826
183769141488
183769146676
183769151620
183769156136
183769161080
183769165169
183769172188
183769179024
183769184273
183769187935
183769192086
183769198067
183769202462
183769207467
183769213021
183769218880
183769223519
183769228768
183769233223
183769238167
183769242318
183769248238
183769252694
183769259713
183769263802
183769269722
183769273690
183769279061
183769284188
183769287972
183769292366
183769299080
183769305855
183769309944
183769315804
183769319588
183769325081
183769330025
183769334297
183769339974
183769346321
183769351936
183769356148
183769360481
183769365486
183769369881
183769375130
183769380440
183769387093
183769392097
183769397530
183769401497
183769407600
183769411507
183769415108
183769421272
183769427010
183769433113
183769438484
183769442390
183769447700
183769452095
183769461738
183769471199
183769480110
183769487739
183769497078
183769508369
183769518989
183769524299
183769537605
183769544136
183769552314
183769558174
183769567512
183769573555
183769583076
183769589302
183769598030
183769606025
183769613471
183769621284
183769629585
183769635810
183769645027
183769650886
183769661323
183769668708
183769677863
183769684150
183769693244
183769698249
183769708015
183769715949
183769721686
183769729865
183769738654
183769746406
183769753486
183769761481
183769768012
183769773200
183769783698
183769791511
183769799872
183769805060
183769814765
183769819709
183769829596
183769836615
183769844123
183769850776
183769859504
183769867621
183769875251
183769881659
183769889655
183769898383
183769904303
183769913886
183769919562
183769928717
183769936774
183769943732
183769950629
183769958563
183769967596
183769974066
183769980292
183769989935
183769996161
183770004706
183770013007
183770018805
183770026861
183770034674
183770042670
183770050970
183770059637
183770065680
183770074286
183770082220
183770090216
183770095038
183770105597
183770112127
183770122198
183770127996
183770137518
183770143255
183770151800
183770157721
183770168280
183770176214
183770182745
183770192083
183770198492
183770207891
183770214422
183770220281
183770230291
183770236578
183770244756
183770252996
183770259588
183770266668
183770276006
183770283147
183770290228
183770296636
183770306280
183770312749
183770318670
183770328374
183770334051
183770343694
183770349615
183770359563
183770366582
183770375615
183770380681
183770388982
183770396001
183770404607
183770410955
183770418584
183770426336
183770434514
183770440618
183770448125
183770454045
183770463140
183770468877
183770477483
183770483708
183770492925
183770499761
183770507207
183770514897
183770520390
183770527593
183770534123
183770542302
183770549321
183770557256
183770563603
183770571477
183770578923
183770585820
183770594365
183770600163
183770606267
183770616399
183770622441
183770630376
183770636479
183770643864
183770651738
183770659184
183770665104
183770673955
183770682377
183770690129
183770696049
183770702580
183770711186
183770717656
183770723454
183770733159
183770739811
183770745549
183770754094
183770759953
183770767704
183770775273
183770780827
183770787968
183770797123
183770806217
183770811711
183770818302
183770824833
183770833866
183770838383
183770847172
183770857060
183770864018
183770870426
183770877567
183770884769
183770892460
183770898136
183770905888
183770914982
183770922489
183770931156
183770937137
183770945316
183770950748
183770958439
183770966251
183770972477
183770980533
183770988834
183770994144
183771002872
183771008609
183771017276
183771022648
183771029483
183771037174
183771045597
183771052311
183771060855
183771067508
183771075199
183771081668
183771089176
183771095462
183771105167
183771111942
183771119571
183771125430
183771132816
183771140445
183771145938
183771153629
183771161441
183771168887
183771176212
183771182925
183771190494
183771196841
183771203372
183771211490
183771218997
183771226688
183771233218
183771243594
183771249026
183771258243
183771264956
183771273379
183771280337
183771287723
183771296817
183771304507
183771311282
183771318240
183771324466
183771334048
183771341311
183771350344
183771357669
183771364260
183771373049
183771380007
183771386172
183771395327
183771402407
183771408755
183771418276
183771425723
183771433413
183771439272
183771446719
183771455630
183771461794
183771471804
183771478518
183771485842
183771491640
183771498904
183771507021
183771514956
183771521731
183771529055
183771536013
183771543947
183771550417
183771557924
183771564089
183771571413
183771577700
183771585756
183771591860
183771599428
183771607241
183771613466
183771621157
183771628054
183771636904
183771645571
183771652162
183771658510
183771666689
183771673708
183771679811
183771687502
183771694704
183771702944
183771709474
183771715334
183771723573
183771728883
183771737795
183771743593
183771753114
183771761171
183771767946
183771774294
183771780458
183771788942
183771795045
183771802614
183771808839
183771817506
183771823549
183771831422
183771839723
183771845582
183771854432
183771860292
183771870302
183771879274
183771886842
183771893251
183771899965
183771908021
183771912355
183771920350
183771928041
183771936891
183771943605
183771951112
183771957643
183771964662
183771970765
183771979554
183771989320
183771998658
183772004457
183772013001
183772018617
183772025392
183772034181
183772042237
183772050965
183772057252
183772064942
183772072755
183772078675
183772086976
183772092347
183772101075
183772109071
183772115418
183772124085
183772130372
183772138856
183772144227
183772151795
183772158692
183772168091
183772174256
183772182740
183772188416
183772195374
183772203797
183772210572
183772216736
183772226685
183772233765
183772241333
183772247742
183772254700
183772261292
183772268067
183772274597
183772282959
183772291565
183772297547
183772305847
183772311279
183772320435
183772328247
183772335144
183772342041
183772348877
183772355652
183772363709
183772371094
183772378357
183772385742
183772393372
183772400940
183772407776
183772415893
183772421875
183772429138
183772435303
183772443054
183772450317
183772458496
183772465271
183772472412
183772478821
183772487854
183772492737
183772501465
183772509033
183772516967
183772524231
183772533264
183772540954
183772547119
183772554992
183772562072
183772570800
183772577941
183772587341
183772596618
183772604797
183772614440
183772623168
183772630615
183772639343
183772646789
183772654479
183772662414
183772670165
183772678161
183772685180
183772692992
183772702636
183772710876
183772717834
183772724792
183772733031
183772740356
183772747130
183772755370
183772764281
183772770629
183772778991
183772787475
183772793334
183772800780
183772809020
183772815978
183772823424
183772831725
183772838683
183772848632
183772855773
183772863036
183772869322
183772877928
183772884642
183772893553
183772899840
183772907897
183772916869
183772922911
183772932005
183772937193
183772945982
183772953307
183772961119
183772970030
183772977965
183772984862
183772991759
183773000426
183773006590
183773016051
183773025755
183773031981
183773040648
183773046934
183773054686
183773062803
183773068785
183773078062
183773083616
183773093321
183773099119
183773108397
183773113218
183773123655
183773129393
183773137999
183773147276
183773155577
183773161497
183773169859
183773177610
183773185667
183773193785
183773202268
183773210264
183773216612
183773222410
183773232908
183773239866
183773247739
183773253782
183773262266
183773270383
183773276426
183773283079
183773294431
183773297666
183773309202
183773316526
183773326658
183773333433
183773347043
183773350095
183773362668
183773370237
183773375120
183773379270
183773385801
183773392942
183773397825
183773402890
183773409116
183773414792
183773419431
183773425046
183773430967
183773437192
183773441037
183773448850
183773453672
183773459958
183773463864
183773470395
183773476865
183773483335
183773488034
183773493100
183773499265
183773502744
183773508542
183773514401
183773520566
183773525998
183773531247
183773536069
183773541318
183773547665
183773552609
183773558286
183773563046
183773568051
183773572568
183773578854
183773583615
183773587582
183773594662
183773600339
183773604184
183773610470
183773615658
183773621274
183773626279
183773632748
183773637936
183773642575
183773647885
183773652402
183773657467
183773662106
183773668576
183773674191
183773679928
183773685177
183773689938
183773695309
183773701291
183773704647
183773711178
183773717221
183773722897
183773727963
183773732846
183773738034
183773742855
183773747738
183773754391
183773758480
183773765072
183773769955
183773775753
183773777828
183773785885
183773789791
183773795407
183773802120
183773808834
183773813351
183773819454
183773824520
183773830502
183773836056
183773840633
183773845272
183773852596
183773858578
183773863338
183773869259
183773873836
183773877071
183773885616
183773890987
183773898006
183773902279
183773908138
183773912350
183773918636
183773922909
183773929439
183773935787
183773941952
183773946041
183773951473
183773956966
183773962703
183773968380
183773973995
183773982174
183773988277
183773992855
183773999385
183774003658
183774009639
183774014888
183774020504
183774026668
183774031002
183774036678
183774042293
183774047786
183774053401
183774058895
183774063777
183774070125
183774075069
183774080562
183774086055
183774091731
183774096370
183774101314
183774107173
183774114436
183774119624
183774125423
183774130489
183774135188
183774140010
183774145198
183774152278
183774158992
183774164302
183774169978
183774176387
183774180965
183774187007
183774192683
183774198176
183774206172
183774211116
183774217891
183774224666
183774230647
183774236506
183774243342
183774249141
183774255061
183774260737
183774266353
183774271907
183774276667
183774282649
183774287593
183774294490
183774300654
183774304805
183774311457
183774316157
183774322566
183774326655
183774332392
183774340571
183774345576
183774351435
183774356562
183774362239
183774368159
183774374201
183774381892
183774388484
183774393977
183774398737
183774403681
183774407404
183774414301
183774419734
183774426508
183774432185
183774437312
183774442561
183774447016
183774452570
183774459467
183774465998
183774472956
183774477717
183774482172
183774488215
183774494501
183774498652
183774503290
183774509638
183774515681
183774521662
183774526484
183774532099
183774538264
183774543696
183774549006
183774554255
183774561457
183774567865
183774572809
183774579584
183774584345
183774589838
183774598322
183774603083
183774609247
183774615229
183774621332
183774625055
183774631952
183774637079
183774642206
183774649286
183774654779
183774660272
183774666620
183774671625
183774677423
183774682672
183774688349
183774695184
183774702326
183774708002
183774713434
183774718866
183774724786
183774727960
183774734491
183774741693
183774748102
183774752679
183774759637
183774764398
183774770990
183774777216
183774783990
183774791437
183774796075
183774801935
183774808343
183774813592
183774818353
183774825006
183774830560
183774835992
183774842462
183774847894
183774852655
183774858636
183774862848
183774868097
183774873224
183774879266
183774884454
183774890008
183774894830
183774900995
183774904901
183774911309
183774917291
183774922235
183774926202
183774933831
183774938226
183774944268
183774949395
183774954034
183774959771
183774964044
183774970330
183774975152
183774981317
183774985650
183774991815
183774997857
183775004266
183775009271
183775015435
183775020867
183775026544
183775032342
183775036919
183775043145
183775049981
183775056084
183775061089
183775066338
183775070550
183775076104
183775082879
183775090508
183775096673
183775100945
183775106927
183775111321
183775117242
183775124322
183775129387
183775135979
183775142815
183775147942
183775153374
183775158501
183775163872
183775171685
183775178521
183775182549
183775187676
183775193352
183775198845
183775204461
183775209526
183775217400
183775225212
183775230156
183775236443
183775240837
183775246575
183775250725
183775257683
183775262322
183775268852
183775275383
183775279289
183775284783
183775289177
183775295403
183775300285
183775307060
183775314446
183775319817
183775326164
183775331230
183775336479
183775342400
183775347710
183775354118
183775359184
183775365715
183775371635
183775376274
183775381279
183775387016
183775393486
183775401054
183775406914
183775411247
183775416679
183775423088
183775426628
183775434318
183775441276
183775448234
183775452873
183775458122
183775464103
183775469841
183775476555
183775481376
183775489067
183775494438
183775499626
183775504936
183775509697
183775513908
183775520439
183775527031
183775532218
183775539421
183775544670
183775550895
183775557182
183775562919
183775574699
183775584892
183775594352
183775607353
183775622428
183775637626
183775648185
183775663383
183775678336
183775683768
183775699821
183775709952
183775720389
183775729789
183775741446
183775752189
183775757560
183775772757
183775780814
183775795646
183775803580
183775815543
183775826529
183775835746
183775846976
183775855338
183775867240
183775874259
183775884329
183775895865
183775903739
183775918204
183775925467
183775934622
183775948294
183775956534
183775970267
183775980887
183775985525
183776001578
183776010489
183776019888
183776026907
183776040030
183776046072
183776054617
183776069021
183776077139
183776085806
183776095633
183776105703
183776114859
183776123220
183776136587
183776144644
183776154348
183776164236
183776173086
183776182119
183776188955
183776203787
183776210745
183776223013
183776228933
183776241933
183776250845
183776259145
183776269521
183776279592
183776288991
183776298208
183776306508
183776316762
183776328359
183776335744
183776344777
183776356801
183776365590
183776374013
183776384572
183776394948
183776403188
183776412221
183776420400
183776434011
183776440663
183776451772
183776461354
183776472524
183776481313
183776490041
183776498891
183776508962
183776518849
183776528005
183776536366
183776547780
183776559254
183776568776
183776574818
183776587819
183776596669
183776604970
183776616078
183776623097
183776634694
183776643727
183776651967
183776662465
183776673695
183776683827
183776693409
183776702687
183776711354
183776719471
183776732106
183776739308
183776750355
183776760731
183776769947
183776778858
183776790028
183776798084
183776807728
183776818836
183776827503
183776835987
183776845936
183776853138
183776863819
183776872974
183776885425
183776896046
183776904102
183776915882
183776922657
183776934742
183776940967
183776953052
183776961536
183776969410
183776979114
183776988147
183776996326
183777004505
183777016346
183777025257
183777033008
183777043811
183777054248
183777061389
183777069324
183777080493
183777088733
183777096546
183777105151
183777115222
183777124927
183777133228
183777144092
183777152454
183777159961
183777170886
183777177356
183777188586
183777199573
183777210742
183777219653
183777227221
183777236377
183777246386
183777255420
183777264148
183777272632
183777281176
183777291674
183777299487
183777309314
183777316882
183777324694
183777333239
183777340136
183777346789
183777353198
183777363879
183777369921
183777375414
183777384387
183777389941
183777398242
183777405505
183777410998
183777421130
183777427966
183777435534
183777442309
183777448840
183777455248
183777461169
183777470446
183777476672
183777486315
183777493212
183777500048
183777505968
183777511461
183777521349
183777526720
183777535998
183777541918
183777549914
183777557299
183777564501
183777571825
183777577684
183777584093
183777592150
183777599047
183777608019
183777614733
183777621691
183777627611
183777633104
183777642198
183777647508
183777655687
183777664415
183777671861
183777679125
183777685777
183777692247
183777698961
183777707262
183777713854
183777720995
183777728868
183777735887
183777745348
183777752122
183777758775
183777764696
183777773057
183777781908
183777789476
183777795579
183777803514
183777809556
183777817064
183777824144
183777831590
183777838853
183777846788
183777853807
183777860826
183777867601
183777873277
183777881578
183777887498
183777895555
183777904832
183777913072
183777919114
183777924668
183777934068
183777939561
183777947862
183777953172
183777961473
183777969529
183777976060
183777982469
183777990891
183777997361
183778005113
183778011521
183778017930
183778026780
183778035020
183778041428
183778049363
183778055161
183778063523
183778069382
183778076585
183778083970
183778093003
183778099290
183778106675
183778113144
183778119553
183778127488
183778133957
183778140854
183778149765
183778157273
183778164048
183778171189
183778177109
183778184616
183778192429
183778199814
183778205979
183778214341
183778221970
183778229538
183778235031
183778241684
183778249253
183778255600
183778263718
183778269882
183778278305
183778286972
183778292526
183778301132
183778306992
183778314682
183778320053
183778327011
183778336044
183778343979
183778351425
183778358383
183778365646
183778373459
183778377975
183778387009
183778394150
183778402633
183778409042
183778416611
183778422653
183778430710
183778436569
183778441940
183778452072
183778458725
183778467514
183778474838
183778481552
183778488937
183778494918
183778501510
183778508651
183778518600
183778524703
183778531112
183778538558
183778544418
183778552413
183778560104
183778566696
183778572799
183778581954
183778590255
183778595748
183778603622
183778611251
183778617965
183778625289
183778631881
183778639022
183778648605
183778653060
183778660934
183778669417
183778675826
183778681869
183778687301
183778697249
183778705123
183778711532
183778719710
183778728194
183778734054
183778741500
183778749556
183778756331
183778765242
183778774947
183778782027
183778790450
183778797347
183778804366
183778810652
183778816817
183778827376
183778833785
183778843367
183778851546
183778858687
183778863753
183778873641
183778880782
183778887373
183778894454
183778906233
183778912947
183778919173
183778927168
183778936690
183778943892
183778952071
183778958906
183778966597
183778976179
183778983504
183778991011
183778997481
183779005659
183779012190
183779020491
183779027571
183779036604
183779045820
183779051008
183779059065
183779066023
183779074385
183779080793
183779091230
183779097700
183779105452
183779114546
183779120649
183779129927
183779135847
183779144880
183779150190
183779159651
183779167219
183779175398
183779182295
183779190534
183779199079
183779205732
183779214338
183779220380
183779228864
183779237775
183779244855
183779251936
183779259809
183779266584
183779274396
183779283369
183779288862
183779297773
183779307355
183779314374
183779322919
183779329145
183779337201
183779344037
183779350934
183779359479
183779367597
183779375715
183779383100
183779389569
183779398175
183779404340
183779412702
183779420758
183779428327
183779437177
183779442853
183779451032
183779459027
183779466046
183779474408
183779480756
183779489240
183779495343
183779504742
183779511273
183779520306
183779530988
183779538678
183779545331
183779554974
183779562237
183779573102
183779579816
183779589093
183779596051
183779602887
183779614361
183779622601
183779629559
183779638714
183779644940
183779652569
183779660931
183779667523
183779676129
183779684307
183779690533
183779698407
183779703961
183779710675
183779720928
183779729229
183779735638
183779744061
183779751690
183779759075
183779767864
183779774883
183779783672
183779790691
183779799419
183779806500
183779812603
183779821392
183779828533
183779837017
183779842876
183779853130
183779859112
183779868267
183779873394
183779882244
183779889446
183779897442
183779904522
183779912578
183779918804
183779927776
183779934185
183779943889
183779951091
183779961345
183779971050
183779978801
183779985698
183779997051
183780007915
183780015117
183780027385
183780033672
183780038677
183780044536
183780049602
183780055583
183780060649
183780067302
183780073467
183780078899
183780084575
183780090556
183780096172
183780102031
183780107646
183780112102
183780119487
183780126018
183780132182
183780136455
183780142070
183780147807
183780151836
183780158305
183780162456
183780169353
183780173198
183780179668
183780183940
183780189311
183780194438
183780199504
183780206035
183780211955
183780216289
183780220561
183780226909
183780231181
183780234843
183780240764
183780246928
183780252848
183780257182
183780262980
183780267070
183780273051
183780277690
183780285380
183780290324
183780295024
183780301188
183780307597
183780311869
183780318461
183780322734
183780327616
183780334574
183780339396
183780343791
183780352030
183780357462
183780361979
183780367533
183780372538
183780380839
183780385722
183780390788
183780396769
183780402750
183780407450
183780413493
183780418742
183780424662
183780431254
183780436869
183780441386
183780446940
183780451395
183780457560
183780462015
183780469157
183780473612
183780480143
183780484843
183780491068
183780495585
183780501383
183780506693
183780514078
183780519449
183780525736
183780530314
183780536417
183780540934
183780546854
183780551676
183780558390
183780564310
183780568583
183780575174
183780579447
183780585245
183780589029
183780596659
183780604715
183780609354
183780613565
183780620706
183780624979
183780630960
183780634928
183780643228
183780647562
183780654642
183780660318
183780666361
183780671610
183780678018
183780683939
183780689554
183780697549
183780703958
183780709268
183780714700
183780720865
183780726297
183780733743
183780740213
183780746133
183780750955
183780758157
183780764322
183780770914
183780776285
183780782449
183780788614
183780795572
183780799661
183780806070
183780812662
183780817849
183780823343
183780829690
183780836343
183780843850
183780848123
183780854532
183780859964
183780867166
183780871255
183780878030
183780884195
183780892007
183780895486
183780903421
183780907937
183780914468
183780920022
183780927529
183780932839
183780939004
183780944863
183780949746
183780955972
183780961038
183780967935
183780974099
183780979836
183780985024
183780991921
183780998147
183781002663
183781007851
183781014993
183781021767
183781027993
183781033974
183781040200
183781044656
183781050576
183781057412
183781064675
183781069192
183781077614
183781083169
183781090432
183781097695
183781106301
183781113137
183781120339
183781127663
183781135476
183781146340
183781151528
183781158364
183781167641
183781174477
183781184121
183781189797
183781197853
183781206948
183781216164
183781223732
183781230751
183781239174
183781244789
183781255531
183781260842
183781271767
183781279274
183781283241
183781293434
183781299538
183781307533
183781316628
183781323708
183781331581
183781339699
183781349953
183781353859
183781366798
183781373451
183781381813
183781387123
183781396705
183781404213
183781407875
183781417701
183781425636
183781435707
183781442054
183781451637
183781459694
183781466896
183781474220
183781480690
183781490211
183781497535
183781507362
183781515235
183781519142
183781531532
183781535011
183781545204
183781553871
183781561683
183781569373
183781577613
183781584998
183781592139
183781599464
183781608558
183781615821
183781623145
183781629981
183781638770
183781645362
183781655555
183781662513
183781669532
183781675574
183781686194
183781691260
183781700110
183781707862
183781715064
183781726844
183781733558
183781741370
183781750647
183781756507
183781763831
183781772925
183781780860
183781789222
183781798865
183781805152
183781814612
183781822913
183781829505
183781837012
183781843970
183781854285
183781861670
183781870459
183781876379
183781885291
183781892249
183781898596
183781907202
183781912634
183781921301
183781931616
183781939612
183781946936
183781954382
183781961584
183781969519
183781979040
183781987097
183781993628
183782002417
183782012121
183782018408
183782027563
183782035498
183782043982
183782050634
183782057653
183782066565
183782076574
183782082739
183782090063
183782098608
183782106054
183782113256
183782123754
183782130651
183782137792
183782147924
183782154577
183782162145
183782168249
183782174902
183782181249
183782189428
183782196935
183782203771
183782210912
183782219091
183782226537
183782232214
183782241369
183782248266
183782254980
183782259618
183782268957
183782275182
183782283300
183782289953
183782298314
183782305028
183782311437
183782318456
183782325963
183782334508
183782340795
183782348302
183782354650
183782362157
183782370763
183782376012
183782383947
183782391393
183782398229
183782406957
183782414769
183782421971
183782430699
183782438329
183782443273
183782451817
183782459081
183782465062
183782473790
183782483373
183782491734
183782499791
183782507787
183782514684
183782519994
183782529820
183782535313
183782544224
183782549718
183782560094
183782566746
183782573216
183782582860
183782588353
183782596043
183782602940
183782612523
183782620030
183782628819
183782636754
183782644993
183782652623
183782659947
183782666661
183782675206
183782680943
183782690464
183782695774
183782702854
183782712437
183782721165
183782724949
183782733799
183782742222
183782749363
183782756199
183782764195
183782770786
183782781162
183782786106
183782793125
183782803745
183782809544
183782816868
183782824070
183782832981
183782839695
183782845127
183782853001
183782860264
183782867161
183782873874
183782879917
183782889683
183782895481
183782902866
183782910862
183782919346
183782925937
183782931858
183782938816
183782946140
183782952610
183782959751
183782968296
183782974948
183782980381
183782990940
183782997898
183783012973
183783023593
183783037265
183783046848
183783061496
183783073398
